# ECG
1.000e+00,-1.780e+00
2.000e+00,-3.324e+00
3.000e+00,-2.424e+00
4.000e+00,-2.484e+00
5.000e+00,-2.466e+00
6.000e+00,-2.147e+00
7.000e+00,-2.211e+00
8.000e+00,-1.970e+00
9.000e+00,-1.927e+00
1.000e+01,-1.792e+00
1.100e+01,-1.687e+00
1.200e+01,-1.593e+00
1.300e+01,-1.481e+00
1.400e+01,-1.392e+00
1.500e+01,-1.425e+00
1.600e+01,-1.310e+00
1.700e+01,-1.049e+00
1.800e+01,-1.162e+00
1.900e+01,-1.048e+00
2.000e+01,-7.739e-01
2.100e+01,-7.894e-01
2.200e+01,-6.860e-01
2.300e+01,-6.050e-01
2.400e+01,-5.540e-01
2.500e+01,-4.659e-01
2.600e+01,-4.139e-01
2.700e+01,-3.421e-01
2.800e+01,-2.840e-01
2.900e+01,-2.244e-01
3.000e+01,-1.666e-01
3.100e+01,-1.130e-01
3.200e+01,-5.949e-02
3.300e+01,-9.656e-03
3.400e+01,3.905e-02
3.500e+01,8.531e-02
3.600e+01,1.297e-01
3.700e+01,1.722e-01
3.800e+01,2.126e-01
3.900e+01,2.514e-01
4.000e+01,1.554e-01
4.100e+01,2.152e-01
4.200e+01,4.198e-01
4.300e+01,3.842e-01
4.400e+01,4.197e-01
4.500e+01,4.692e-01
4.600e+01,4.693e-01
4.700e+01,5.160e-01
4.800e+01,5.261e-01
4.900e+01,5.550e-01
5.000e+01,5.739e-01
5.100e+01,5.929e-01
5.200e+01,6.125e-01
5.300e+01,6.280e-01
5.400e+01,6.447e-01
5.500e+01,6.586e-01
5.600e+01,6.722e-01
5.700e+01,6.844e-01
5.800e+01,5.627e-01
5.900e+01,5.975e-01
6.000e+01,7.777e-01
6.100e+01,7.186e-01
6.200e+01,7.311e-01
6.300e+01,7.585e-01
6.400e+01,7.370e-01
6.500e+01,7.629e-01
6.600e+01,7.528e-01
6.700e+01,7.621e-01
6.800e+01,7.622e-01
6.900e+01,7.629e-01
7.000e+01,7.649e-01
7.100e+01,7.635e-01
7.200e+01,7.637e-01
7.300e+01,7.619e-01
7.400e+01,7.602e-01
7.500e+01,7.578e-01
7.600e+01,7.548e-01
7.700e+01,7.514e-01
7.800e+01,7.474e-01
7.900e+01,7.431e-01
8.000e+01,7.383e-01
8.100e+01,7.332e-01
8.200e+01,7.276e-01
8.300e+01,7.217e-01
8.400e+01,7.155e-01
8.500e+01,7.089e-01
8.600e+01,7.021e-01
8.700e+01,6.950e-01
8.800e+01,5.548e-01
8.900e+01,5.718e-01
9.000e+01,7.352e-01
9.100e+01,6.599e-01
9.200e+01,6.571e-01
9.300e+01,6.698e-01
9.400e+01,6.345e-01
9.500e+01,6.472e-01
9.600e+01,6.245e-01
9.700e+01,6.220e-01
9.800e+01,6.109e-01
9.900e+01,6.011e-01
1.000e+02,4.853e-01
1.010e+02,-1.777e+00
1.020e+02,-3.321e+00
1.030e+02,-2.421e+00
1.040e+02,-2.613e+00
1.050e+02,-2.571e+00
1.060e+02,-2.081e+00
1.070e+02,-2.212e+00
1.080e+02,-1.966e+00
1.090e+02,-1.902e+00
1.100e+02,-1.794e+00
1.110e+02,-1.667e+00
1.120e+02,-1.720e+00
1.130e+02,-1.577e+00
1.140e+02,-1.319e+00
1.150e+02,-1.287e+00
1.160e+02,-1.191e+00
1.170e+02,-1.081e+00
1.180e+02,-1.020e+00
1.190e+02,-9.161e-01
1.200e+02,-8.478e-01
1.210e+02,-7.631e-01
1.220e+02,-6.889e-01
1.230e+02,-6.161e-01
1.240e+02,-5.438e-01
1.250e+02,-4.766e-01
1.260e+02,-4.095e-01
1.270e+02,-3.463e-01
1.280e+02,-2.846e-01
1.290e+02,-2.255e-01
1.300e+02,-1.686e-01
1.310e+02,-1.138e-01
1.320e+02,-6.129e-02
1.330e+02,-1.078e-02
1.340e+02,3.761e-02
1.350e+02,8.399e-02
1.360e+02,1.284e-01
1.370e+02,1.708e-01
1.380e+02,7.872e-02
1.390e+02,1.420e-01
1.400e+02,3.500e-01
1.410e+02,3.180e-01
1.420e+02,3.568e-01
1.430e+02,4.096e-01
1.440e+02,4.129e-01
1.450e+02,4.627e-01
1.460e+02,4.758e-01
1.470e+02,5.076e-01
1.480e+02,5.294e-01
1.490e+02,5.512e-01
1.500e+02,5.735e-01
1.510e+02,5.917e-01
1.520e+02,6.109e-01
1.530e+02,6.273e-01
1.540e+02,6.433e-01
1.550e+02,5.251e-01
1.560e+02,5.630e-01
1.570e+02,7.465e-01
1.580e+02,6.904e-01
1.590e+02,7.060e-01
1.600e+02,7.361e-01
1.610e+02,7.175e-01
1.620e+02,7.460e-01
1.630e+02,7.385e-01
1.640e+02,7.503e-01
1.650e+02,7.528e-01
1.660e+02,6.231e-01
1.670e+02,6.519e-01
1.680e+02,8.237e-01
1.690e+02,7.588e-01
1.700e+02,7.643e-01
1.710e+02,7.855e-01
1.720e+02,7.581e-01
1.730e+02,7.781e-01
1.740e+02,7.626e-01
1.750e+02,7.665e-01
1.760e+02,7.616e-01
1.770e+02,7.574e-01
1.780e+02,7.548e-01
1.790e+02,7.489e-01
1.800e+02,6.123e-01
1.810e+02,6.310e-01
1.820e+02,7.967e-01
1.830e+02,5.907e-01
1.840e+02,6.143e-01
1.850e+02,7.999e-01
1.860e+02,6.988e-01
1.870e+02,7.184e-01
1.880e+02,7.181e-01
1.890e+02,6.900e-01
1.900e+02,5.686e-01
1.910e+02,5.704e-01
1.920e+02,7.409e-01
1.930e+02,6.615e-01
1.940e+02,6.583e-01
1.950e+02,6.710e-01
1.960e+02,6.338e-01
1.970e+02,6.467e-01
1.980e+02,6.228e-01
1.990e+02,6.199e-01
2.000e+02,5.002e-01
2.010e+02,-1.775e+00
2.020e+02,-3.316e+00
2.030e+02,-2.418e+00
2.040e+02,-2.477e+00
2.050e+02,-2.459e+00
2.060e+02,-2.142e+00
2.070e+02,-2.206e+00
2.080e+02,-1.966e+00
2.090e+02,-1.922e+00
2.100e+02,-1.787e+00
2.110e+02,-1.683e+00
2.120e+02,-1.589e+00
2.130e+02,-1.478e+00
2.140e+02,-1.389e+00
2.150e+02,-1.421e+00
2.160e+02,-1.307e+00
2.170e+02,-1.046e+00
2.180e+02,-1.027e+00
2.190e+02,-9.380e-01
2.200e+02,-8.351e-01
2.210e+02,-7.835e-01
2.220e+02,-8.183e-01
2.230e+02,-7.339e-01
2.240e+02,-4.856e-01
2.250e+02,-6.184e-01
2.260e+02,-5.229e-01
2.270e+02,-2.659e-01
2.280e+02,-2.996e-01
2.290e+02,-2.127e-01
2.300e+02,-2.815e-01
2.310e+02,-2.223e-01
2.320e+02,2.027e-02
2.330e+02,-1.085e-02
2.340e+02,5.069e-02
2.350e+02,1.144e-01
2.360e+02,1.322e-01
2.370e+02,1.964e-01
2.380e+02,2.217e-01
2.390e+02,2.675e-01
2.400e+02,3.013e-01
2.410e+02,3.357e-01
2.420e+02,3.699e-01
2.430e+02,3.997e-01
2.440e+02,4.303e-01
2.450e+02,4.577e-01
2.460e+02,4.844e-01
2.470e+02,5.093e-01
2.480e+02,5.327e-01
2.490e+02,5.548e-01
2.500e+02,5.754e-01
2.510e+02,5.947e-01
2.520e+02,6.127e-01
2.530e+02,6.294e-01
2.540e+02,5.125e-01
2.550e+02,5.514e-01
2.560e+02,7.353e-01
2.570e+02,6.803e-01
2.580e+02,6.967e-01
2.590e+02,7.276e-01
2.600e+02,5.774e-01
2.610e+02,4.987e-01
2.620e+02,6.873e-01
2.630e+02,8.035e-01
2.640e+02,7.450e-01
2.650e+02,7.751e-01
2.660e+02,7.741e-01
2.670e+02,7.700e-01
2.680e+02,7.804e-01
2.690e+02,7.736e-01
2.700e+02,7.786e-01
2.710e+02,7.756e-01
2.720e+02,7.752e-01
2.730e+02,7.735e-01
2.740e+02,7.707e-01
2.750e+02,7.683e-01
2.760e+02,7.646e-01
2.770e+02,7.610e-01
2.780e+02,7.565e-01
2.790e+02,7.518e-01
2.800e+02,7.466e-01
2.810e+02,7.410e-01
2.820e+02,7.351e-01
2.830e+02,7.288e-01
2.840e+02,7.222e-01
2.850e+02,7.153e-01
2.860e+02,7.081e-01
2.870e+02,7.007e-01
2.880e+02,6.929e-01
2.890e+02,6.850e-01
2.900e+02,5.445e-01
2.910e+02,5.606e-01
2.920e+02,7.229e-01
2.930e+02,6.472e-01
2.940e+02,6.438e-01
2.950e+02,6.558e-01
2.960e+02,6.200e-01
2.970e+02,6.321e-01
2.980e+02,6.091e-01
2.990e+02,6.062e-01
3.000e+02,4.622e-01
3.010e+02,-1.773e+00
3.020e+02,-3.312e+00
3.030e+02,-2.547e+00
3.040e+02,-2.582e+00
3.050e+02,-2.394e+00
3.060e+02,-2.143e+00
3.070e+02,-2.202e+00
3.080e+02,-1.941e+00
3.090e+02,-1.924e+00
3.100e+02,-1.768e+00
3.110e+02,-1.678e+00
3.120e+02,-1.577e+00
3.130e+02,-1.468e+00
3.140e+02,-1.381e+00
3.150e+02,-1.279e+00
3.160e+02,-1.192e+00
3.170e+02,-1.101e+00
3.180e+02,-1.015e+00
3.190e+02,-9.319e-01
3.200e+02,-8.503e-01
3.210e+02,-7.724e-01
3.220e+02,-8.284e-01
3.230e+02,-7.307e-01
3.240e+02,-4.892e-01
3.250e+02,-4.877e-01
3.260e+02,-5.485e-01
3.270e+02,-4.392e-01
3.280e+02,-2.340e-01
3.290e+02,-2.205e-01
3.300e+02,-1.719e-01
3.310e+02,-8.985e-02
3.320e+02,-6.608e-02
3.330e+02,4.926e-03
3.340e+02,4.081e-02
3.350e+02,9.200e-02
3.360e+02,1.351e-01
3.370e+02,1.761e-01
3.380e+02,2.179e-01
3.390e+02,1.226e-01
3.400e+02,5.240e-02
3.410e+02,2.818e-01
3.420e+02,4.186e-01
3.430e+02,3.884e-01
3.440e+02,4.445e-01
3.450e+02,3.348e-01
3.460e+02,3.804e-01
3.470e+02,5.837e-01
3.480e+02,5.329e-01
3.490e+02,5.648e-01
3.500e+02,6.038e-01
3.510e+02,5.971e-01
3.520e+02,5.039e-01
3.530e+02,5.308e-01
3.540e+02,7.235e-01
3.550e+02,6.681e-01
3.560e+02,6.860e-01
3.570e+02,7.199e-01
3.580e+02,7.025e-01
3.590e+02,7.343e-01
3.600e+02,7.285e-01
3.610e+02,7.427e-01
3.620e+02,7.472e-01
3.630e+02,7.521e-01
3.640e+02,7.583e-01
3.650e+02,7.607e-01
3.660e+02,7.648e-01
3.670e+02,7.665e-01
3.680e+02,7.683e-01
3.690e+02,7.691e-01
3.700e+02,7.692e-01
3.710e+02,7.689e-01
3.720e+02,7.677e-01
3.730e+02,7.661e-01
3.740e+02,7.638e-01
3.750e+02,7.611e-01
3.760e+02,7.578e-01
3.770e+02,7.540e-01
3.780e+02,7.498e-01
3.790e+02,7.451e-01
3.800e+02,7.401e-01
3.810e+02,7.346e-01
3.820e+02,7.288e-01
3.830e+02,7.226e-01
3.840e+02,7.161e-01
3.850e+02,7.093e-01
3.860e+02,7.022e-01
3.870e+02,6.949e-01
3.880e+02,6.873e-01
3.890e+02,6.795e-01
3.900e+02,6.714e-01
3.910e+02,6.632e-01
3.920e+02,6.548e-01
3.930e+02,6.463e-01
3.940e+02,6.376e-01
3.950e+02,4.965e-01
3.960e+02,5.120e-01
3.970e+02,6.735e-01
3.980e+02,5.974e-01
3.990e+02,5.936e-01
4.000e+02,4.730e-01
4.010e+02,-1.788e+00
4.020e+02,-3.342e+00
4.030e+02,-2.436e+00
4.040e+02,-2.496e+00
4.050e+02,-2.478e+00
4.060e+02,-2.158e+00
4.070e+02,-2.222e+00
4.080e+02,-1.980e+00
4.090e+02,-1.936e+00
4.100e+02,-1.800e+00
4.110e+02,-1.695e+00
4.120e+02,-1.600e+00
4.130e+02,-1.488e+00
4.140e+02,-1.398e+00
4.150e+02,-1.297e+00
4.160e+02,-1.207e+00
4.170e+02,-1.117e+00
4.180e+02,-1.029e+00
4.190e+02,-9.451e-01
4.200e+02,-8.625e-01
4.210e+02,-7.835e-01
4.220e+02,-7.065e-01
4.230e+02,-6.323e-01
4.240e+02,-5.605e-01
4.250e+02,-4.912e-01
4.260e+02,-4.243e-01
4.270e+02,-3.598e-01
4.280e+02,-2.976e-01
4.290e+02,-2.377e-01
4.300e+02,-1.801e-01
4.310e+02,-1.246e-01
4.320e+02,-7.138e-02
4.330e+02,-2.025e-02
4.340e+02,2.879e-02
4.350e+02,7.579e-02
4.360e+02,1.208e-01
4.370e+02,1.638e-01
4.380e+02,2.050e-01
4.390e+02,2.442e-01
4.400e+02,2.816e-01
4.410e+02,3.173e-01
4.420e+02,3.512e-01
4.430e+02,3.834e-01
4.440e+02,4.139e-01
4.450e+02,4.428e-01
4.460e+02,4.702e-01
4.470e+02,3.625e-01
4.480e+02,4.116e-01
4.490e+02,6.067e-01
4.500e+02,5.605e-01
4.510e+02,5.861e-01
4.520e+02,6.261e-01
4.530e+02,6.166e-01
4.540e+02,6.543e-01
4.550e+02,6.554e-01
4.560e+02,6.757e-01
4.570e+02,6.863e-01
4.580e+02,6.972e-01
4.590e+02,7.090e-01
4.600e+02,7.169e-01
4.610e+02,5.927e-01
4.620e+02,6.243e-01
4.630e+02,8.032e-01
4.640e+02,7.411e-01
4.650e+02,7.513e-01
4.660e+02,7.765e-01
4.670e+02,7.525e-01
4.680e+02,7.764e-01
4.690e+02,7.642e-01
4.700e+02,7.715e-01
4.710e+02,7.697e-01
4.720e+02,7.686e-01
4.730e+02,7.688e-01
4.740e+02,7.656e-01
4.750e+02,7.643e-01
4.760e+02,7.609e-01
4.770e+02,7.578e-01
4.780e+02,7.539e-01
4.790e+02,7.496e-01
4.800e+02,7.450e-01
4.810e+02,7.398e-01
4.820e+02,7.343e-01
4.830e+02,7.285e-01
4.840e+02,7.223e-01
4.850e+02,7.157e-01
4.860e+02,7.089e-01
4.870e+02,7.018e-01
4.880e+02,6.945e-01
4.890e+02,6.869e-01
4.900e+02,6.790e-01
4.910e+02,6.710e-01
4.920e+02,6.628e-01
4.930e+02,6.544e-01
4.940e+02,6.459e-01
4.950e+02,6.372e-01
4.960e+02,4.948e-01
4.970e+02,5.106e-01
4.980e+02,6.738e-01
4.990e+02,5.970e-01
5.000e+02,4.848e-01
5.010e+02,-1.781e+00
5.020e+02,-3.330e+00
5.030e+02,-2.426e+00
5.040e+02,-2.486e+00
5.050e+02,-2.469e+00
5.060e+02,-2.149e+00
5.070e+02,-2.213e+00
5.080e+02,-1.972e+00
5.090e+02,-1.928e+00
5.100e+02,-1.793e+00
5.110e+02,-1.688e+00
5.120e+02,-1.593e+00
5.130e+02,-1.481e+00
5.140e+02,-1.392e+00
5.150e+02,-1.291e+00
5.160e+02,-1.201e+00
5.170e+02,-1.111e+00
5.180e+02,-1.024e+00
5.190e+02,-9.400e-01
5.200e+02,-9.908e-01
5.210e+02,-8.874e-01
5.220e+02,-6.389e-01
5.230e+02,-6.324e-01
5.240e+02,-5.553e-01
5.250e+02,-4.651e-01
5.260e+02,-4.253e-01
5.270e+02,-3.395e-01
5.280e+02,-2.914e-01
5.290e+02,-2.252e-01
5.300e+02,-1.699e-01
5.310e+02,-1.154e-01
5.320e+02,-6.104e-02
5.330e+02,-1.448e-01
5.340e+02,-7.042e-02
5.350e+02,1.474e-01
5.360e+02,1.249e-01
5.370e+02,3.986e-02
5.380e+02,1.264e-01
5.390e+02,3.103e-01
5.400e+02,1.682e-01
5.410e+02,2.199e-01
5.420e+02,4.527e-01
5.430e+02,3.882e-01
5.440e+02,4.446e-01
5.450e+02,4.818e-01
5.460e+02,4.868e-01
5.470e+02,5.325e-01
5.480e+02,5.413e-01
5.490e+02,5.716e-01
5.500e+02,5.889e-01
5.510e+02,6.086e-01
5.520e+02,6.276e-01
5.530e+02,6.431e-01
5.540e+02,6.596e-01
5.550e+02,6.732e-01
5.560e+02,6.867e-01
5.570e+02,6.986e-01
5.580e+02,7.095e-01
5.590e+02,7.194e-01
5.600e+02,7.282e-01
5.610e+02,7.361e-01
5.620e+02,7.430e-01
5.630e+02,7.491e-01
5.640e+02,7.542e-01
5.650e+02,7.586e-01
5.660e+02,7.621e-01
5.670e+02,6.317e-01
5.680e+02,6.583e-01
5.690e+02,8.313e-01
5.700e+02,7.644e-01
5.710e+02,7.698e-01
5.720e+02,7.902e-01
5.730e+02,7.620e-01
5.740e+02,7.816e-01
5.750e+02,7.653e-01
5.760e+02,7.688e-01
5.770e+02,7.632e-01
5.780e+02,7.585e-01
5.790e+02,7.554e-01
5.800e+02,7.490e-01
5.810e+02,6.115e-01
5.820e+02,4.967e-01
5.830e+02,6.873e-01
5.840e+02,7.851e-01
5.850e+02,5.831e-01
5.860e+02,6.274e-01
5.870e+02,7.860e-01
5.880e+02,5.724e-01
5.890e+02,6.023e-01
5.900e+02,7.797e-01
5.910e+02,6.815e-01
5.920e+02,6.971e-01
5.930e+02,6.963e-01
5.940e+02,6.668e-01
5.950e+02,6.764e-01
5.960e+02,5.198e-01
5.970e+02,5.423e-01
5.980e+02,7.010e-01
5.990e+02,6.239e-01
6.000e+02,5.119e-01
6.010e+02,-1.771e+00
6.020e+02,-3.306e+00
6.030e+02,-2.411e+00
6.040e+02,-2.470e+00
6.050e+02,-2.584e+00
6.060e+02,-2.243e+00
6.070e+02,-2.137e+00
6.080e+02,-2.096e+00
6.090e+02,-2.023e+00
6.100e+02,-1.698e+00
6.110e+02,-1.687e+00
6.120e+02,-1.567e+00
6.130e+02,-1.449e+00
6.140e+02,-1.380e+00
6.150e+02,-1.393e+00
6.160e+02,-1.294e+00
6.170e+02,-1.027e+00
6.180e+02,-1.011e+00
6.190e+02,-9.225e-01
6.200e+02,-8.195e-01
6.210e+02,-7.697e-01
6.220e+02,-6.717e-01
6.230e+02,-6.131e-01
6.240e+02,-5.359e-01
6.250e+02,-4.699e-01
6.260e+02,-4.049e-01
6.270e+02,-3.402e-01
6.280e+02,-2.808e-01
6.290e+02,-2.211e-01
6.300e+02,-2.972e-01
6.310e+02,-2.182e-01
6.320e+02,4.040e-03
6.330e+02,-1.285e-02
6.340e+02,4.060e-02
6.350e+02,1.074e-01
6.360e+02,1.248e-01
6.370e+02,1.881e-01
6.380e+02,2.145e-01
6.390e+02,2.592e-01
6.400e+02,2.937e-01
6.410e+02,1.957e-01
6.420e+02,2.545e-01
6.430e+02,4.545e-01
6.440e+02,4.182e-01
6.450e+02,4.510e-01
6.460e+02,4.987e-01
6.470e+02,4.969e-01
6.480e+02,5.416e-01
6.490e+02,5.500e-01
6.500e+02,5.770e-01
6.510e+02,5.942e-01
6.520e+02,6.115e-01
6.530e+02,6.295e-01
6.540e+02,6.435e-01
6.550e+02,5.267e-01
6.560e+02,5.636e-01
6.570e+02,7.460e-01
6.580e+02,6.899e-01
6.590e+02,7.051e-01
6.600e+02,7.349e-01
6.610e+02,7.160e-01
6.620e+02,7.442e-01
6.630e+02,7.365e-01
6.640e+02,7.480e-01
6.650e+02,7.502e-01
6.660e+02,6.210e-01
6.670e+02,6.494e-01
6.680e+02,8.200e-01
6.690e+02,7.553e-01
6.700e+02,7.605e-01
6.710e+02,7.815e-01
6.720e+02,7.540e-01
6.730e+02,7.737e-01
6.740e+02,7.581e-01
6.750e+02,7.618e-01
6.760e+02,7.567e-01
6.770e+02,7.524e-01
6.780e+02,7.496e-01
6.790e+02,7.436e-01
6.800e+02,7.396e-01
6.810e+02,7.336e-01
6.820e+02,7.280e-01
6.830e+02,7.218e-01
6.840e+02,7.153e-01
6.850e+02,7.086e-01
6.860e+02,7.014e-01
6.870e+02,6.942e-01
6.880e+02,6.866e-01
6.890e+02,6.788e-01
6.900e+02,6.707e-01
6.910e+02,6.625e-01
6.920e+02,6.541e-01
6.930e+02,6.456e-01
6.940e+02,6.369e-01
6.950e+02,6.280e-01
6.960e+02,6.191e-01
6.970e+02,6.100e-01
6.980e+02,6.009e-01
6.990e+02,5.917e-01
7.000e+02,4.504e-01
7.010e+02,-1.789e+00
7.020e+02,-3.345e+00
7.030e+02,-2.438e+00
7.040e+02,-2.498e+00
7.050e+02,-2.480e+00
7.060e+02,-2.159e+00
7.070e+02,-2.223e+00
7.080e+02,-1.981e+00
7.090e+02,-1.937e+00
7.100e+02,-1.801e+00
7.110e+02,-1.695e+00
7.120e+02,-1.600e+00
7.130e+02,-1.488e+00
7.140e+02,-1.398e+00
7.150e+02,-1.297e+00
7.160e+02,-1.207e+00
7.170e+02,-1.116e+00
7.180e+02,-1.029e+00
7.190e+02,-9.444e-01
7.200e+02,-8.617e-01
7.210e+02,-7.826e-01
7.220e+02,-7.054e-01
7.230e+02,-6.311e-01
7.240e+02,-5.592e-01
7.250e+02,-4.898e-01
7.260e+02,-4.228e-01
7.270e+02,-3.582e-01
7.280e+02,-2.959e-01
7.290e+02,-2.359e-01
7.300e+02,-1.782e-01
7.310e+02,-1.227e-01
7.320e+02,-6.933e-02
7.330e+02,-1.812e-02
7.340e+02,3.099e-02
7.350e+02,7.806e-02
7.360e+02,1.231e-01
7.370e+02,1.662e-01
7.380e+02,2.074e-01
7.390e+02,2.467e-01
7.400e+02,2.842e-01
7.410e+02,3.199e-01
7.420e+02,3.539e-01
7.430e+02,3.861e-01
7.440e+02,4.167e-01
7.450e+02,4.457e-01
7.460e+02,4.731e-01
7.470e+02,4.989e-01
7.480e+02,5.233e-01
7.490e+02,5.462e-01
7.500e+02,5.677e-01
7.510e+02,5.879e-01
7.520e+02,6.067e-01
7.530e+02,6.242e-01
7.540e+02,6.405e-01
7.550e+02,5.218e-01
7.560e+02,5.605e-01
7.570e+02,7.457e-01
7.580e+02,5.558e-01
7.590e+02,5.967e-01
7.600e+02,7.999e-01
7.610e+02,7.137e-01
7.620e+02,7.483e-01
7.630e+02,7.623e-01
7.640e+02,7.475e-01
7.650e+02,7.718e-01
7.660e+02,7.613e-01
7.670e+02,7.722e-01
7.680e+02,7.711e-01
7.690e+02,7.729e-01
7.700e+02,7.745e-01
7.710e+02,7.734e-01
7.720e+02,7.738e-01
7.730e+02,7.720e-01
7.740e+02,7.705e-01
7.750e+02,7.681e-01
7.760e+02,7.652e-01
7.770e+02,7.619e-01
7.780e+02,7.580e-01
7.790e+02,7.537e-01
7.800e+02,7.489e-01
7.810e+02,7.438e-01
7.820e+02,7.383e-01
7.830e+02,7.324e-01
7.840e+02,7.262e-01
7.850e+02,7.196e-01
7.860e+02,7.128e-01
7.870e+02,5.719e-01
7.880e+02,5.893e-01
7.890e+02,6.204e-01
7.900e+02,5.696e-01
7.910e+02,7.395e-01
7.920e+02,6.848e-01
7.930e+02,6.548e-01
7.940e+02,6.890e-01
7.950e+02,6.393e-01
7.960e+02,6.584e-01
7.970e+02,4.997e-01
7.980e+02,5.211e-01
7.990e+02,6.835e-01
8.000e+02,5.123e-01
8.010e+02,-1.776e+00
8.020e+02,-3.319e+00
8.030e+02,-2.419e+00
8.040e+02,-2.479e+00
8.050e+02,-2.461e+00
8.060e+02,-2.143e+00
8.070e+02,-2.207e+00
8.080e+02,-1.967e+00
8.090e+02,-1.923e+00
8.100e+02,-1.921e+00
8.110e+02,-1.792e+00
8.120e+02,-1.527e+00
8.130e+02,-1.482e+00
8.140e+02,-1.521e+00
8.150e+02,-1.375e+00
8.160e+02,-1.141e+00
8.170e+02,-1.097e+00
8.180e+02,-1.151e+00
8.190e+02,-1.016e+00
8.200e+02,-7.914e-01
8.210e+02,-7.596e-01
8.220e+02,-6.903e-01
8.230e+02,-5.908e-01
8.240e+02,-5.476e-01
8.250e+02,-4.589e-01
8.260e+02,-4.051e-01
8.270e+02,-3.364e-01
8.280e+02,-2.762e-01
8.290e+02,-2.183e-01
8.300e+02,-1.601e-01
8.310e+02,-1.070e-01
8.320e+02,-5.378e-02
8.330e+02,-4.042e-03
8.340e+02,4.427e-02
8.350e+02,9.041e-02
8.360e+02,1.345e-01
8.370e+02,1.768e-01
8.380e+02,2.170e-01
8.390e+02,2.555e-01
8.400e+02,2.922e-01
8.410e+02,3.271e-01
8.420e+02,3.603e-01
8.430e+02,3.918e-01
8.440e+02,4.216e-01
8.450e+02,4.499e-01
8.460e+02,4.766e-01
8.470e+02,5.018e-01
8.480e+02,5.256e-01
8.490e+02,5.479e-01
8.500e+02,5.688e-01
8.510e+02,5.883e-01
8.520e+02,6.066e-01
8.530e+02,6.236e-01
8.540e+02,6.393e-01
8.550e+02,5.213e-01
8.560e+02,5.593e-01
8.570e+02,7.425e-01
8.580e+02,6.866e-01
8.590e+02,7.022e-01
8.600e+02,7.324e-01
8.610e+02,7.138e-01
8.620e+02,7.423e-01
8.630e+02,7.348e-01
8.640e+02,7.467e-01
8.650e+02,7.492e-01
8.660e+02,7.522e-01
8.670e+02,6.239e-01
8.680e+02,6.491e-01
8.690e+02,8.225e-01
8.700e+02,7.554e-01
8.710e+02,7.611e-01
8.720e+02,7.815e-01
8.730e+02,7.535e-01
8.740e+02,7.731e-01
8.750e+02,7.569e-01
8.760e+02,7.605e-01
8.770e+02,7.550e-01
8.780e+02,6.179e-01
8.790e+02,6.394e-01
8.800e+02,8.041e-01
8.810e+02,7.327e-01
8.820e+02,7.319e-01
8.830e+02,7.472e-01
8.840e+02,7.140e-01
8.850e+02,7.287e-01
8.860e+02,7.080e-01
8.870e+02,7.071e-01
8.880e+02,6.976e-01
8.890e+02,6.891e-01
8.900e+02,5.499e-01
8.910e+02,5.647e-01
8.920e+02,7.282e-01
8.930e+02,6.519e-01
8.940e+02,6.487e-01
8.950e+02,6.608e-01
8.960e+02,6.249e-01
8.970e+02,6.371e-01
8.980e+02,6.140e-01
8.990e+02,6.111e-01
9.000e+02,4.918e-01
9.010e+02,-1.782e+00
9.020e+02,-3.328e+00
9.030e+02,-2.426e+00
9.040e+02,-2.486e+00
9.050e+02,-2.468e+00
9.060e+02,-2.149e+00
9.070e+02,-2.214e+00
9.080e+02,-1.973e+00
9.090e+02,-1.929e+00
9.100e+02,-1.794e+00
9.110e+02,-1.689e+00
9.120e+02,-1.594e+00
9.130e+02,-1.483e+00
9.140e+02,-1.394e+00
9.150e+02,-1.293e+00
9.160e+02,-1.204e+00
9.170e+02,-1.246e+00
9.180e+02,-1.134e+00
9.190e+02,-8.793e-01
9.200e+02,-8.645e-01
9.210e+02,-7.805e-01
9.220e+02,-6.827e-01
9.230e+02,-6.357e-01
9.240e+02,-5.429e-01
9.250e+02,-4.877e-01
9.260e+02,-4.147e-01
9.270e+02,-3.526e-01
9.280e+02,-2.915e-01
9.290e+02,-2.306e-01
9.300e+02,-1.749e-01
9.310e+02,-2.518e-01
9.320e+02,-1.749e-01
9.330e+02,4.740e-02
9.340e+02,2.867e-02
9.350e+02,8.064e-02
9.360e+02,1.464e-01
9.370e+02,1.622e-01
9.380e+02,9.143e-02
9.390e+02,1.411e-01
9.400e+02,3.560e-01
9.410e+02,3.219e-01
9.420e+02,3.601e-01
9.430e+02,4.143e-01
9.440e+02,4.161e-01
9.450e+02,4.669e-01
9.460e+02,4.794e-01
9.470e+02,5.114e-01
9.480e+02,5.332e-01
9.490e+02,5.548e-01
9.500e+02,5.771e-01
9.510e+02,5.952e-01
9.520e+02,6.144e-01
9.530e+02,6.307e-01
9.540e+02,6.466e-01
9.550e+02,6.611e-01
9.560e+02,6.743e-01
9.570e+02,6.866e-01
9.580e+02,6.976e-01
9.590e+02,7.077e-01
9.600e+02,7.167e-01
9.610e+02,7.248e-01
9.620e+02,7.319e-01
9.630e+02,7.381e-01
9.640e+02,7.434e-01
9.650e+02,7.479e-01
9.660e+02,7.516e-01
9.670e+02,7.545e-01
9.680e+02,7.566e-01
9.690e+02,7.581e-01
9.700e+02,7.588e-01
9.710e+02,7.589e-01
9.720e+02,7.584e-01
9.730e+02,7.572e-01
9.740e+02,7.555e-01
9.750e+02,7.532e-01
9.760e+02,7.504e-01
9.770e+02,7.471e-01
9.780e+02,7.434e-01
9.790e+02,7.392e-01
9.800e+02,7.345e-01
9.810e+02,7.295e-01
9.820e+02,7.241e-01
9.830e+02,7.183e-01
9.840e+02,7.122e-01
9.850e+02,7.058e-01
9.860e+02,6.990e-01
9.870e+02,6.920e-01
9.880e+02,6.848e-01
9.890e+02,6.773e-01
9.900e+02,6.696e-01
9.910e+02,6.617e-01
9.920e+02,6.535e-01
9.930e+02,6.453e-01
9.940e+02,6.368e-01
9.950e+02,6.283e-01
9.960e+02,4.867e-01
9.970e+02,5.025e-01
9.980e+02,6.649e-01
9.990e+02,5.886e-01
1.000e+03,5.850e-01
1.001e+03,-1.779e+00
1.002e+03,-3.325e+00
1.003e+03,-2.424e+00
1.004e+03,-2.484e+00
1.005e+03,-2.466e+00
1.006e+03,-2.147e+00
1.007e+03,-2.211e+00
1.008e+03,-1.970e+00
1.009e+03,-1.926e+00
1.010e+03,-1.791e+00
1.011e+03,-1.686e+00
1.012e+03,-1.592e+00
1.013e+03,-1.480e+00
1.014e+03,-1.391e+00
1.015e+03,-1.291e+00
1.016e+03,-1.201e+00
1.017e+03,-1.111e+00
1.018e+03,-1.024e+00
1.019e+03,-9.403e-01
1.020e+03,-8.581e-01
1.021e+03,-7.795e-01
1.022e+03,-7.029e-01
1.023e+03,-7.619e-01
1.024e+03,-7.988e-01
1.025e+03,-5.338e-01
1.026e+03,-3.632e-01
1.027e+03,-3.608e-01
1.028e+03,-4.053e-01
1.029e+03,-3.268e-01
1.030e+03,-1.036e-01
1.031e+03,-1.082e-01
1.032e+03,-5.713e-02
1.033e+03,1.911e-02
1.034e+03,3.822e-02
1.035e+03,1.068e-01
1.036e+03,1.374e-01
1.037e+03,1.859e-01
1.038e+03,2.247e-01
1.039e+03,2.623e-01
1.040e+03,3.006e-01
1.041e+03,3.340e-01
1.042e+03,3.682e-01
1.043e+03,3.991e-01
1.044e+03,4.292e-01
1.045e+03,3.245e-01
1.046e+03,3.758e-01
1.047e+03,5.724e-01
1.048e+03,5.287e-01
1.049e+03,5.564e-01
1.050e+03,5.984e-01
1.051e+03,5.911e-01
1.052e+03,6.306e-01
1.053e+03,6.337e-01
1.054e+03,6.558e-01
1.055e+03,6.682e-01
1.056e+03,6.808e-01
1.057e+03,6.942e-01
1.058e+03,7.038e-01
1.059e+03,7.147e-01
1.060e+03,7.230e-01
1.061e+03,7.311e-01
1.062e+03,7.380e-01
1.063e+03,7.440e-01
1.064e+03,7.493e-01
1.065e+03,7.536e-01
1.066e+03,7.571e-01
1.067e+03,6.270e-01
1.068e+03,6.536e-01
1.069e+03,8.263e-01
1.070e+03,6.267e-01
1.071e+03,6.567e-01
1.072e+03,8.485e-01
1.073e+03,7.531e-01
1.074e+03,7.780e-01
1.075e+03,7.829e-01
1.076e+03,7.596e-01
1.077e+03,7.754e-01
1.078e+03,7.570e-01
1.079e+03,7.603e-01
1.080e+03,7.519e-01
1.081e+03,7.468e-01
1.082e+03,7.417e-01
1.083e+03,7.343e-01
1.084e+03,7.287e-01
1.085e+03,7.212e-01
1.086e+03,7.143e-01
1.087e+03,7.067e-01
1.088e+03,6.990e-01
1.089e+03,6.912e-01
1.090e+03,6.829e-01
1.091e+03,5.418e-01
1.092e+03,5.578e-01
1.093e+03,7.205e-01
1.094e+03,6.444e-01
1.095e+03,5.080e-01
1.096e+03,5.446e-01
1.097e+03,6.799e-01
1.098e+03,6.247e-01
1.099e+03,6.070e-01
1.100e+03,5.171e-01
1.101e+03,-1.783e+00
1.102e+03,-3.331e+00
1.103e+03,-2.429e+00
1.104e+03,-2.489e+00
1.105e+03,-2.471e+00
1.106e+03,-2.152e+00
1.107e+03,-2.216e+00
1.108e+03,-1.975e+00
1.109e+03,-1.931e+00
1.110e+03,-1.796e+00
1.111e+03,-1.691e+00
1.112e+03,-1.596e+00
1.113e+03,-1.484e+00
1.114e+03,-1.395e+00
1.115e+03,-1.295e+00
1.116e+03,-1.205e+00
1.117e+03,-1.115e+00
1.118e+03,-1.027e+00
1.119e+03,-9.437e-01
1.120e+03,-8.615e-01
1.121e+03,-7.828e-01
1.122e+03,-8.391e-01
1.123e+03,-7.406e-01
1.124e+03,-4.975e-01
1.125e+03,-4.958e-01
1.126e+03,-4.238e-01
1.127e+03,-3.383e-01
1.128e+03,-3.033e-01
1.129e+03,-2.222e-01
1.130e+03,-1.786e-01
1.131e+03,-1.170e-01
1.132e+03,-6.608e-02
1.133e+03,-1.590e-02
1.134e+03,3.417e-02
1.135e+03,7.939e-02
1.136e+03,-7.986e-03
1.137e+03,5.877e-02
1.138e+03,2.713e-01
1.139e+03,2.428e-01
1.140e+03,2.853e-01
1.141e+03,3.418e-01
1.142e+03,3.485e-01
1.143e+03,4.018e-01
1.144e+03,4.182e-01
1.145e+03,4.533e-01
1.146e+03,4.782e-01
1.147e+03,5.030e-01
1.148e+03,5.283e-01
1.149e+03,5.494e-01
1.150e+03,5.714e-01
1.151e+03,5.905e-01
1.152e+03,6.091e-01
1.153e+03,6.262e-01
1.154e+03,6.419e-01
1.155e+03,6.567e-01
1.156e+03,5.371e-01
1.157e+03,5.741e-01
1.158e+03,7.569e-01
1.159e+03,6.997e-01
1.160e+03,7.144e-01
1.161e+03,7.437e-01
1.162e+03,7.241e-01
1.163e+03,7.518e-01
1.164e+03,7.435e-01
1.165e+03,6.215e-01
1.166e+03,6.478e-01
1.167e+03,8.217e-01
1.168e+03,6.248e-01
1.169e+03,6.548e-01
1.170e+03,8.491e-01
1.171e+03,7.544e-01
1.172e+03,7.808e-01
1.173e+03,7.868e-01
1.174e+03,7.645e-01
1.175e+03,7.815e-01
1.176e+03,7.640e-01
1.177e+03,7.683e-01
1.178e+03,7.607e-01
1.179e+03,7.565e-01
1.180e+03,7.522e-01
1.181e+03,7.456e-01
1.182e+03,7.407e-01
1.183e+03,7.338e-01
1.184e+03,7.275e-01
1.185e+03,7.206e-01
1.186e+03,7.134e-01
1.187e+03,7.060e-01
1.188e+03,6.982e-01
1.189e+03,6.904e-01
1.190e+03,6.822e-01
1.191e+03,6.739e-01
1.192e+03,6.653e-01
1.193e+03,6.566e-01
1.194e+03,6.478e-01
1.195e+03,6.388e-01
1.196e+03,6.297e-01
1.197e+03,6.205e-01
1.198e+03,6.113e-01
1.199e+03,6.019e-01
1.200e+03,4.844e-01
1.201e+03,-1.778e+00
1.202e+03,-3.456e+00
1.203e+03,-2.530e+00
1.204e+03,-2.419e+00
1.205e+03,-2.468e+00
1.206e+03,-2.144e+00
1.207e+03,-2.187e+00
1.208e+03,-1.973e+00
1.209e+03,-1.908e+00
1.210e+03,-1.787e+00
1.211e+03,-1.675e+00
1.212e+03,-1.583e+00
1.213e+03,-1.473e+00
1.214e+03,-1.382e+00
1.215e+03,-1.283e+00
1.216e+03,-1.193e+00
1.217e+03,-1.104e+00
1.218e+03,-1.016e+00
1.219e+03,-9.331e-01
1.220e+03,-9.841e-01
1.221e+03,-8.810e-01
1.222e+03,-6.334e-01
1.223e+03,-6.270e-01
1.224e+03,-5.504e-01
1.225e+03,-4.605e-01
1.226e+03,-4.210e-01
1.227e+03,-3.356e-01
1.228e+03,-2.878e-01
1.229e+03,-2.219e-01
1.230e+03,-1.669e-01
1.231e+03,-1.127e-01
1.232e+03,-5.865e-02
1.233e+03,-9.534e-03
1.234e+03,3.989e-02
1.235e+03,8.573e-02
1.236e+03,1.304e-01
1.237e+03,1.728e-01
1.238e+03,2.133e-01
1.239e+03,2.522e-01
1.240e+03,2.890e-01
1.241e+03,1.914e-01
1.242e+03,2.494e-01
1.243e+03,4.524e-01
1.244e+03,4.152e-01
1.245e+03,4.491e-01
1.246e+03,4.971e-01
1.247e+03,4.957e-01
1.248e+03,5.410e-01
1.249e+03,5.497e-01
1.250e+03,5.772e-01
1.251e+03,5.948e-01
1.252e+03,6.125e-01
1.253e+03,6.309e-01
1.254e+03,6.452e-01
1.255e+03,6.608e-01
1.256e+03,6.736e-01
1.257e+03,6.861e-01
1.258e+03,6.972e-01
1.259e+03,7.072e-01
1.260e+03,7.164e-01
1.261e+03,7.245e-01
1.262e+03,7.317e-01
1.263e+03,7.379e-01
1.264e+03,7.433e-01
1.265e+03,6.151e-01
1.266e+03,6.434e-01
1.267e+03,8.176e-01
1.268e+03,7.526e-01
1.269e+03,7.595e-01
1.270e+03,7.814e-01
1.271e+03,7.547e-01
1.272e+03,7.756e-01
1.273e+03,7.607e-01
1.274e+03,7.654e-01
1.275e+03,7.611e-01
1.276e+03,7.576e-01
1.277e+03,7.556e-01
1.278e+03,7.503e-01
1.279e+03,7.469e-01
1.280e+03,7.416e-01
1.281e+03,7.367e-01
1.282e+03,7.311e-01
1.283e+03,7.251e-01
1.284e+03,5.861e-01
1.285e+03,6.041e-01
1.286e+03,7.686e-01
1.287e+03,6.942e-01
1.288e+03,5.594e-01
1.289e+03,4.647e-01
1.290e+03,6.259e-01
1.291e+03,7.433e-01
1.292e+03,6.594e-01
1.293e+03,6.839e-01
1.294e+03,6.675e-01
1.295e+03,6.526e-01
1.296e+03,6.526e-01
1.297e+03,6.346e-01
1.298e+03,6.307e-01
1.299e+03,6.180e-01
1.300e+03,5.014e-01
1.301e+03,-1.778e+00
1.302e+03,-3.323e+00
1.303e+03,-2.422e+00
1.304e+03,-2.482e+00
1.305e+03,-2.464e+00
1.306e+03,-2.278e+00
1.307e+03,-2.317e+00
1.308e+03,-1.905e+00
1.309e+03,-1.929e+00
1.310e+03,-1.789e+00
1.311e+03,-1.663e+00
1.312e+03,-1.595e+00
1.313e+03,-1.462e+00
1.314e+03,-1.387e+00
1.315e+03,-1.280e+00
1.316e+03,-1.193e+00
1.317e+03,-1.103e+00
1.318e+03,-1.015e+00
1.319e+03,-9.331e-01
1.320e+03,-9.830e-01
1.321e+03,-8.806e-01
1.322e+03,-6.327e-01
1.323e+03,-6.264e-01
1.324e+03,-6.826e-01
1.325e+03,-5.681e-01
1.326e+03,-3.574e-01
1.327e+03,-3.393e-01
1.328e+03,-2.860e-01
1.329e+03,-1.991e-01
1.330e+03,-1.709e-01
1.331e+03,-9.536e-02
1.332e+03,-5.515e-02
1.333e+03,3.432e-04
1.334e+03,4.764e-02
1.335e+03,9.271e-02
1.336e+03,1.386e-01
1.337e+03,1.794e-01
1.338e+03,2.207e-01
1.339e+03,2.587e-01
1.340e+03,2.956e-01
1.341e+03,3.306e-01
1.342e+03,3.637e-01
1.343e+03,3.953e-01
1.344e+03,4.251e-01
1.345e+03,4.535e-01
1.346e+03,4.802e-01
1.347e+03,5.054e-01
1.348e+03,5.292e-01
1.349e+03,5.515e-01
1.350e+03,5.724e-01
1.351e+03,5.920e-01
1.352e+03,6.102e-01
1.353e+03,6.272e-01
1.354e+03,6.430e-01
1.355e+03,6.575e-01
1.356e+03,6.709e-01
1.357e+03,6.832e-01
1.358e+03,6.944e-01
1.359e+03,7.045e-01
1.360e+03,7.137e-01
1.361e+03,7.218e-01
1.362e+03,7.290e-01
1.363e+03,7.353e-01
1.364e+03,7.408e-01
1.365e+03,7.454e-01
1.366e+03,7.491e-01
1.367e+03,6.194e-01
1.368e+03,6.462e-01
1.369e+03,8.190e-01
1.370e+03,7.526e-01
1.371e+03,7.582e-01
1.372e+03,7.788e-01
1.373e+03,7.510e-01
1.374e+03,7.707e-01
1.375e+03,7.547e-01
1.376e+03,7.584e-01
1.377e+03,7.531e-01
1.378e+03,7.487e-01
1.379e+03,7.458e-01
1.380e+03,6.069e-01
1.381e+03,4.946e-01
1.382e+03,6.843e-01
1.383e+03,7.827e-01
1.384e+03,7.146e-01
1.385e+03,7.346e-01
1.386e+03,7.221e-01
1.387e+03,7.095e-01
1.388e+03,7.097e-01
1.389e+03,6.947e-01
1.390e+03,5.584e-01
1.391e+03,5.721e-01
1.392e+03,7.357e-01
1.393e+03,5.269e-01
1.394e+03,5.476e-01
1.395e+03,7.313e-01
1.396e+03,6.278e-01
1.397e+03,6.455e-01
1.398e+03,6.433e-01
1.399e+03,6.135e-01
1.400e+03,6.232e-01
1.401e+03,-1.782e+00
1.402e+03,-3.328e+00
1.403e+03,-2.426e+00
1.404e+03,-2.486e+00
1.405e+03,-2.468e+00
1.406e+03,-2.149e+00
1.407e+03,-2.214e+00
1.408e+03,-1.973e+00
1.409e+03,-1.929e+00
1.410e+03,-1.794e+00
1.411e+03,-1.689e+00
1.412e+03,-1.594e+00
1.413e+03,-1.483e+00
1.414e+03,-1.394e+00
1.415e+03,-1.293e+00
1.416e+03,-1.204e+00
1.417e+03,-1.113e+00
1.418e+03,-1.026e+00
1.419e+03,-9.425e-01
1.420e+03,-8.604e-01
1.421e+03,-7.818e-01
1.422e+03,-7.051e-01
1.423e+03,-6.313e-01
1.424e+03,-5.598e-01
1.425e+03,-4.908e-01
1.426e+03,-4.242e-01
1.427e+03,-3.600e-01
1.428e+03,-2.981e-01
1.429e+03,-3.714e-01
1.430e+03,-2.894e-01
1.431e+03,-6.284e-02
1.432e+03,-7.715e-02
1.433e+03,-1.537e-01
1.434e+03,-5.921e-02
1.435e+03,1.321e-01
1.436e+03,1.310e-01
1.437e+03,1.654e-01
1.438e+03,2.339e-01
1.439e+03,2.440e-01
1.440e+03,3.019e-01
1.441e+03,3.247e-01
1.442e+03,2.304e-01
1.443e+03,2.858e-01
1.444e+03,4.861e-01
1.445e+03,3.159e-01
1.446e+03,3.714e-01
1.447e+03,5.901e-01
1.448e+03,5.193e-01
1.449e+03,5.687e-01
1.450e+03,5.970e-01
1.451e+03,5.962e-01
1.452e+03,6.338e-01
1.453e+03,6.363e-01
1.454e+03,6.597e-01
1.455e+03,6.706e-01
1.456e+03,6.842e-01
1.457e+03,6.969e-01
1.458e+03,7.066e-01
1.459e+03,7.174e-01
1.460e+03,5.927e-01
1.461e+03,6.254e-01
1.462e+03,8.036e-01
1.463e+03,6.094e-01
1.464e+03,6.446e-01
1.465e+03,8.412e-01
1.466e+03,7.506e-01
1.467e+03,7.800e-01
1.468e+03,7.892e-01
1.469e+03,7.700e-01
1.470e+03,6.569e-01
1.471e+03,6.668e-01
1.472e+03,8.451e-01
1.473e+03,7.727e-01
1.474e+03,7.763e-01
1.475e+03,7.954e-01
1.476e+03,7.640e-01
1.477e+03,7.824e-01
1.478e+03,7.637e-01
1.479e+03,7.656e-01
1.480e+03,7.582e-01
1.481e+03,7.519e-01
1.482e+03,7.472e-01
1.483e+03,7.392e-01
1.484e+03,7.334e-01
1.485e+03,7.257e-01
1.486e+03,7.185e-01
1.487e+03,7.108e-01
1.488e+03,5.699e-01
1.489e+03,5.865e-01
1.490e+03,7.494e-01
1.491e+03,6.736e-01
1.492e+03,6.703e-01
1.493e+03,6.825e-01
1.494e+03,6.466e-01
1.495e+03,6.588e-01
1.496e+03,6.357e-01
1.497e+03,6.328e-01
1.498e+03,6.212e-01
1.499e+03,6.109e-01
1.500e+03,4.945e-01
1.501e+03,-1.775e+00
1.502e+03,-3.313e+00
1.503e+03,-2.416e+00
1.504e+03,-2.476e+00
1.505e+03,-2.458e+00
1.506e+03,-2.141e+00
1.507e+03,-2.337e+00
1.508e+03,-2.073e+00
1.509e+03,-1.859e+00
1.510e+03,-1.791e+00
1.511e+03,-1.813e+00
1.512e+03,-1.674e+00
1.513e+03,-1.419e+00
1.514e+03,-1.376e+00
1.515e+03,-1.284e+00
1.516e+03,-1.168e+00
1.517e+03,-1.107e+00
1.518e+03,-9.996e-01
1.519e+03,-9.289e-01
1.520e+03,-8.423e-01
1.521e+03,-7.654e-01
1.522e+03,-6.906e-01
1.523e+03,-6.159e-01
1.524e+03,-5.466e-01
1.525e+03,-4.774e-01
1.526e+03,-4.120e-01
1.527e+03,-3.483e-01
1.528e+03,-2.870e-01
1.529e+03,-2.282e-01
1.530e+03,-1.713e-01
1.531e+03,-1.169e-01
1.532e+03,-6.442e-02
1.533e+03,-1.414e-02
1.534e+03,3.410e-02
1.535e+03,8.032e-02
1.536e+03,1.246e-01
1.537e+03,1.669e-01
1.538e+03,2.073e-01
1.539e+03,2.459e-01
1.540e+03,1.504e-01
1.541e+03,2.099e-01
1.542e+03,4.137e-01
1.543e+03,3.784e-01
1.544e+03,2.815e-01
1.545e+03,2.231e-01
1.546e+03,4.183e-01
1.547e+03,5.685e-01
1.548e+03,5.170e-01
1.549e+03,5.722e-01
1.550e+03,5.854e-01
1.551e+03,5.989e-01
1.552e+03,6.260e-01
1.553e+03,6.341e-01
1.554e+03,6.551e-01
1.555e+03,5.339e-01
1.556e+03,5.724e-01
1.557e+03,6.225e-01
1.558e+03,5.904e-01
1.559e+03,7.765e-01
1.560e+03,7.388e-01
1.561e+03,7.255e-01
1.562e+03,7.744e-01
1.563e+03,7.399e-01
1.564e+03,7.726e-01
1.565e+03,7.609e-01
1.566e+03,7.699e-01
1.567e+03,7.716e-01
1.568e+03,7.712e-01
1.569e+03,7.744e-01
1.570e+03,7.725e-01
1.571e+03,7.732e-01
1.572e+03,7.714e-01
1.573e+03,7.698e-01
1.574e+03,7.676e-01
1.575e+03,7.646e-01
1.576e+03,7.613e-01
1.577e+03,7.574e-01
1.578e+03,7.531e-01
1.579e+03,7.483e-01
1.580e+03,7.432e-01
1.581e+03,7.376e-01
1.582e+03,7.317e-01
1.583e+03,7.254e-01
1.584e+03,7.188e-01
1.585e+03,7.120e-01
1.586e+03,7.048e-01
1.587e+03,6.973e-01
1.588e+03,6.896e-01
1.589e+03,6.817e-01
1.590e+03,6.736e-01
1.591e+03,6.653e-01
1.592e+03,6.568e-01
1.593e+03,6.481e-01
1.594e+03,6.393e-01
1.595e+03,6.304e-01
1.596e+03,6.214e-01
1.597e+03,6.122e-01
1.598e+03,6.030e-01
1.599e+03,5.937e-01
1.600e+03,4.769e-01
1.601e+03,-1.783e+00
1.602e+03,-3.330e+00
1.603e+03,-2.428e+00
1.604e+03,-2.488e+00
1.605e+03,-2.470e+00
1.606e+03,-2.151e+00
1.607e+03,-2.215e+00
1.608e+03,-1.974e+00
1.609e+03,-1.931e+00
1.610e+03,-1.795e+00
1.611e+03,-1.690e+00
1.612e+03,-1.596e+00
1.613e+03,-1.484e+00
1.614e+03,-1.395e+00
1.615e+03,-1.295e+00
1.616e+03,-1.205e+00
1.617e+03,-1.115e+00
1.618e+03,-1.027e+00
1.619e+03,-9.439e-01
1.620e+03,-8.617e-01
1.621e+03,-7.831e-01
1.622e+03,-7.064e-01
1.623e+03,-6.325e-01
1.624e+03,-5.611e-01
1.625e+03,-4.920e-01
1.626e+03,-4.254e-01
1.627e+03,-3.612e-01
1.628e+03,-2.993e-01
1.629e+03,-2.397e-01
1.630e+03,-1.823e-01
1.631e+03,-1.271e-01
1.632e+03,-2.070e-01
1.633e+03,-1.315e-01
1.634e+03,8.878e-02
1.635e+03,6.823e-02
1.636e+03,-1.447e-02
1.637e+03,7.410e-02
1.638e+03,2.596e-01
1.639e+03,2.528e-01
1.640e+03,2.816e-01
1.641e+03,3.446e-01
1.642e+03,3.494e-01
1.643e+03,4.021e-01
1.644e+03,4.199e-01
1.645e+03,3.206e-01
1.646e+03,3.712e-01
1.647e+03,5.668e-01
1.648e+03,5.250e-01
1.649e+03,5.514e-01
1.650e+03,5.944e-01
1.651e+03,5.867e-01
1.652e+03,6.266e-01
1.653e+03,6.298e-01
1.654e+03,6.520e-01
1.655e+03,5.316e-01
1.656e+03,5.689e-01
1.657e+03,7.539e-01
1.658e+03,5.632e-01
1.659e+03,6.043e-01
1.660e+03,8.052e-01
1.661e+03,7.193e-01
1.662e+03,7.531e-01
1.663e+03,7.664e-01
1.664e+03,7.513e-01
1.665e+03,7.749e-01
1.666e+03,7.640e-01
1.667e+03,7.745e-01
1.668e+03,7.728e-01
1.669e+03,7.742e-01
1.670e+03,7.754e-01
1.671e+03,7.738e-01
1.672e+03,7.738e-01
1.673e+03,7.715e-01
1.674e+03,7.697e-01
1.675e+03,7.669e-01
1.676e+03,7.636e-01
1.677e+03,7.599e-01
1.678e+03,7.557e-01
1.679e+03,7.511e-01
1.680e+03,7.460e-01
1.681e+03,7.406e-01
1.682e+03,7.347e-01
1.683e+03,7.286e-01
1.684e+03,7.221e-01
1.685e+03,7.152e-01
1.686e+03,7.081e-01
1.687e+03,7.008e-01
1.688e+03,6.931e-01
1.689e+03,6.853e-01
1.690e+03,6.772e-01
1.691e+03,6.689e-01
1.692e+03,6.605e-01
1.693e+03,6.519e-01
1.694e+03,6.431e-01
1.695e+03,6.342e-01
1.696e+03,6.252e-01
1.697e+03,6.161e-01
1.698e+03,6.069e-01
1.699e+03,5.976e-01
1.700e+03,4.802e-01
1.701e+03,-1.776e+00
1.702e+03,-3.317e+00
1.703e+03,-2.419e+00
1.704e+03,-2.478e+00
1.705e+03,-2.461e+00
1.706e+03,-2.143e+00
1.707e+03,-2.207e+00
1.708e+03,-2.099e+00
1.709e+03,-2.031e+00
1.710e+03,-1.725e+00
1.711e+03,-1.688e+00
1.712e+03,-1.589e+00
1.713e+03,-1.456e+00
1.714e+03,-1.394e+00
1.715e+03,-1.273e+00
1.716e+03,-1.197e+00
1.717e+03,-1.101e+00
1.718e+03,-1.016e+00
1.719e+03,-9.336e-01
1.720e+03,-8.505e-01
1.721e+03,-7.738e-01
1.722e+03,-8.290e-01
1.723e+03,-7.316e-01
1.724e+03,-4.896e-01
1.725e+03,-6.206e-01
1.726e+03,-5.245e-01
1.727e+03,-2.688e-01
1.728e+03,-3.012e-01
1.729e+03,-2.152e-01
1.730e+03,-1.510e-01
1.731e+03,-1.165e-01
1.732e+03,-4.470e-02
1.733e+03,-8.680e-03
1.734e+03,4.740e-02
1.735e+03,9.015e-02
1.736e+03,1.347e-01
1.737e+03,1.777e-01
1.738e+03,2.168e-01
1.739e+03,2.561e-01
1.740e+03,2.921e-01
1.741e+03,3.272e-01
1.742e+03,3.603e-01
1.743e+03,2.592e-01
1.744e+03,3.136e-01
1.745e+03,5.126e-01
1.746e+03,4.722e-01
1.747e+03,5.027e-01
1.748e+03,5.474e-01
1.749e+03,5.429e-01
1.750e+03,5.851e-01
1.751e+03,5.908e-01
1.752e+03,6.154e-01
1.753e+03,6.302e-01
1.754e+03,6.452e-01
1.755e+03,6.609e-01
1.756e+03,5.402e-01
1.757e+03,5.778e-01
1.758e+03,7.590e-01
1.759e+03,7.021e-01
1.760e+03,7.163e-01
1.761e+03,7.452e-01
1.762e+03,7.256e-01
1.763e+03,7.529e-01
1.764e+03,6.120e-01
1.765e+03,6.473e-01
1.766e+03,8.195e-01
1.767e+03,7.545e-01
1.768e+03,7.632e-01
1.769e+03,7.840e-01
1.770e+03,7.587e-01
1.771e+03,7.793e-01
1.772e+03,7.649e-01
1.773e+03,7.699e-01
1.774e+03,7.657e-01
1.775e+03,7.626e-01
1.776e+03,7.607e-01
1.777e+03,7.556e-01
1.778e+03,6.200e-01
1.779e+03,6.394e-01
1.780e+03,8.054e-01
1.781e+03,7.328e-01
1.782e+03,7.324e-01
1.783e+03,7.473e-01
1.784e+03,7.140e-01
1.785e+03,7.286e-01
1.786e+03,7.077e-01
1.787e+03,7.068e-01
1.788e+03,6.971e-01
1.789e+03,6.885e-01
1.790e+03,6.817e-01
1.791e+03,6.719e-01
1.792e+03,6.643e-01
1.793e+03,6.550e-01
1.794e+03,6.463e-01
1.795e+03,6.372e-01
1.796e+03,6.280e-01
1.797e+03,6.188e-01
1.798e+03,6.094e-01
1.799e+03,6.001e-01
1.800e+03,4.995e-01
1.801e+03,-1.781e+00
1.802e+03,-3.328e+00
1.803e+03,-2.426e+00
1.804e+03,-2.486e+00
1.805e+03,-2.468e+00
1.806e+03,-2.149e+00
1.807e+03,-2.213e+00
1.808e+03,-1.972e+00
1.809e+03,-1.928e+00
1.810e+03,-1.793e+00
1.811e+03,-1.688e+00
1.812e+03,-1.594e+00
1.813e+03,-1.482e+00
1.814e+03,-1.393e+00
1.815e+03,-1.292e+00
1.816e+03,-1.335e+00
1.817e+03,-1.220e+00
1.818e+03,-9.616e-01
1.819e+03,-9.453e-01
1.820e+03,-8.576e-01
1.821e+03,-7.578e-01
1.822e+03,-7.080e-01
1.823e+03,-6.127e-01
1.824e+03,-5.550e-01
1.825e+03,-4.795e-01
1.826e+03,-4.150e-01
1.827e+03,-3.515e-01
1.828e+03,-2.883e-01
1.829e+03,-3.633e-01
1.830e+03,-2.804e-01
1.831e+03,-5.443e-02
1.832e+03,-6.871e-02
1.833e+03,-1.257e-02
1.834e+03,5.714e-02
1.835e+03,7.700e-02
1.836e+03,1.430e-01
1.837e+03,1.719e-01
1.838e+03,2.190e-01
1.839e+03,2.559e-01
1.840e+03,2.922e-01
1.841e+03,3.288e-01
1.842e+03,3.608e-01
1.843e+03,3.935e-01
1.844e+03,4.230e-01
1.845e+03,4.517e-01
1.846e+03,4.786e-01
1.847e+03,3.709e-01
1.848e+03,4.195e-01
1.849e+03,6.135e-01
1.850e+03,5.672e-01
1.851e+03,5.923e-01
1.852e+03,6.318e-01
1.853e+03,6.221e-01
1.854e+03,6.594e-01
1.855e+03,6.602e-01
1.856e+03,6.801e-01
1.857e+03,5.574e-01
1.858e+03,5.926e-01
1.859e+03,7.756e-01
1.860e+03,7.159e-01
1.861e+03,5.974e-01
1.862e+03,6.497e-01
1.863e+03,8.008e-01
1.864e+03,7.601e-01
1.865e+03,7.561e-01
1.866e+03,7.874e-01
1.867e+03,7.612e-01
1.868e+03,7.840e-01
1.869e+03,7.728e-01
1.870e+03,7.784e-01
1.871e+03,7.771e-01
1.872e+03,7.751e-01
1.873e+03,7.752e-01
1.874e+03,6.386e-01
1.875e+03,5.285e-01
1.876e+03,7.210e-01
1.877e+03,8.217e-01
1.878e+03,7.556e-01
1.879e+03,7.775e-01
1.880e+03,7.668e-01
1.881e+03,7.558e-01
1.882e+03,7.577e-01
1.883e+03,7.441e-01
1.884e+03,7.419e-01
1.885e+03,7.323e-01
1.886e+03,7.257e-01
1.887e+03,7.180e-01
1.888e+03,7.096e-01
1.889e+03,7.018e-01
1.890e+03,6.930e-01
1.891e+03,6.846e-01
1.892e+03,6.757e-01
1.893e+03,6.668e-01
1.894e+03,6.577e-01
1.895e+03,6.484e-01
1.896e+03,6.391e-01
1.897e+03,6.296e-01
1.898e+03,6.201e-01
1.899e+03,4.775e-01
1.900e+03,3.844e-01
1.901e+03,-1.763e+00
1.902e+03,-3.424e+00
1.903e+03,-2.508e+00
1.904e+03,-2.398e+00
1.905e+03,-2.447e+00
1.906e+03,-2.126e+00
1.907e+03,-2.300e+00
1.908e+03,-2.064e+00
1.909e+03,-1.830e+00
1.910e+03,-1.908e+00
1.911e+03,-1.768e+00
1.912e+03,-1.486e+00
1.913e+03,-1.470e+00
1.914e+03,-1.354e+00
1.915e+03,-1.249e+00
1.916e+03,-1.180e+00
1.917e+03,-1.204e+00
1.918e+03,-1.107e+00
1.919e+03,-8.478e-01
1.920e+03,-8.370e-01
1.921e+03,-7.539e-01
1.922e+03,-6.570e-01
1.923e+03,-6.122e-01
1.924e+03,-5.200e-01
1.925e+03,-5.980e-01
1.926e+03,-5.017e-01
1.927e+03,-2.713e-01
1.928e+03,-2.780e-01
1.929e+03,-2.129e-01
1.930e+03,-1.374e-01
1.931e+03,-2.405e-01
1.932e+03,-1.439e-01
1.933e+03,6.192e-02
1.934e+03,4.926e-02
1.935e+03,9.809e-02
1.936e+03,1.620e-01
1.937e+03,1.783e-01
1.938e+03,2.378e-01
1.939e+03,2.629e-01
1.940e+03,3.048e-01
1.941e+03,3.372e-01
1.942e+03,3.691e-01
1.943e+03,4.012e-01
1.944e+03,4.290e-01
1.945e+03,4.575e-01
1.946e+03,4.830e-01
1.947e+03,5.078e-01
1.948e+03,5.309e-01
1.949e+03,5.525e-01
1.950e+03,5.729e-01
1.951e+03,5.918e-01
1.952e+03,6.095e-01
1.953e+03,6.259e-01
1.954e+03,6.412e-01
1.955e+03,5.238e-01
1.956e+03,5.610e-01
1.957e+03,7.424e-01
1.958e+03,6.866e-01
1.959e+03,7.017e-01
1.960e+03,7.312e-01
1.961e+03,7.125e-01
1.962e+03,7.404e-01
1.963e+03,7.327e-01
1.964e+03,7.442e-01
1.965e+03,7.463e-01
1.966e+03,7.490e-01
1.967e+03,7.530e-01
1.968e+03,7.534e-01
1.969e+03,7.554e-01
1.970e+03,7.553e-01
1.971e+03,7.553e-01
1.972e+03,6.229e-01
1.973e+03,6.458e-01
1.974e+03,8.134e-01
1.975e+03,7.442e-01
1.976e+03,7.466e-01
1.977e+03,7.639e-01
1.978e+03,7.334e-01
1.979e+03,7.501e-01
1.980e+03,7.316e-01
1.981e+03,7.327e-01
1.982e+03,5.935e-01
1.983e+03,6.112e-01
1.984e+03,7.757e-01
1.985e+03,7.010e-01
1.986e+03,7.003e-01
1.987e+03,7.133e-01
1.988e+03,6.794e-01
1.989e+03,6.928e-01
1.990e+03,6.710e-01
1.991e+03,6.693e-01
1.992e+03,6.588e-01
1.993e+03,6.495e-01
1.994e+03,6.421e-01
1.995e+03,6.317e-01
1.996e+03,6.236e-01
1.997e+03,6.138e-01
1.998e+03,6.047e-01
1.999e+03,5.953e-01
2.000e+03,4.790e-01
2.001e+03,-1.780e+00
2.002e+03,-3.326e+00
2.003e+03,-2.425e+00
2.004e+03,-2.485e+00
2.005e+03,-2.467e+00
2.006e+03,-2.148e+00
2.007e+03,-2.212e+00
2.008e+03,-1.971e+00
2.009e+03,-1.928e+00
2.010e+03,-1.925e+00
2.011e+03,-1.796e+00
2.012e+03,-1.530e+00
2.013e+03,-1.619e+00
2.014e+03,-1.500e+00
2.015e+03,-1.207e+00
2.016e+03,-1.211e+00
2.017e+03,-1.094e+00
2.018e+03,-9.999e-01
2.019e+03,-9.367e-01
2.020e+03,-8.353e-01
2.021e+03,-7.713e-01
2.022e+03,-6.870e-01
2.023e+03,-6.169e-01
2.024e+03,-5.454e-01
2.025e+03,-4.760e-01
2.026e+03,-4.110e-01
2.027e+03,-3.462e-01
2.028e+03,-2.853e-01
2.029e+03,-2.258e-01
2.030e+03,-1.689e-01
2.031e+03,-1.141e-01
2.032e+03,-6.146e-02
2.033e+03,-1.101e-02
2.034e+03,3.748e-02
2.035e+03,8.387e-02
2.036e+03,1.283e-01
2.037e+03,1.708e-01
2.038e+03,2.114e-01
2.039e+03,2.501e-01
2.040e+03,2.870e-01
2.041e+03,3.222e-01
2.042e+03,3.556e-01
2.043e+03,3.874e-01
2.044e+03,4.175e-01
2.045e+03,4.459e-01
2.046e+03,4.729e-01
2.047e+03,4.983e-01
2.048e+03,5.222e-01
2.049e+03,5.447e-01
2.050e+03,5.659e-01
2.051e+03,5.856e-01
2.052e+03,6.041e-01
2.053e+03,6.212e-01
2.054e+03,6.371e-01
2.055e+03,6.519e-01
2.056e+03,6.654e-01
2.057e+03,6.779e-01
2.058e+03,6.892e-01
2.059e+03,6.995e-01
2.060e+03,7.088e-01
2.061e+03,7.171e-01
2.062e+03,7.245e-01
2.063e+03,7.309e-01
2.064e+03,7.365e-01
2.065e+03,7.412e-01
2.066e+03,7.451e-01
2.067e+03,7.482e-01
2.068e+03,7.506e-01
2.069e+03,7.523e-01
2.070e+03,7.532e-01
2.071e+03,7.535e-01
2.072e+03,7.532e-01
2.073e+03,6.194e-01
2.074e+03,6.425e-01
2.075e+03,8.118e-01
2.076e+03,7.419e-01
2.077e+03,7.442e-01
2.078e+03,7.617e-01
2.079e+03,7.309e-01
2.080e+03,6.149e-01
2.081e+03,6.208e-01
2.082e+03,7.934e-01
2.083e+03,7.183e-01
2.084e+03,7.171e-01
2.085e+03,7.331e-01
2.086e+03,6.981e-01
2.087e+03,7.135e-01
2.088e+03,6.918e-01
2.089e+03,6.909e-01
2.090e+03,6.810e-01
2.091e+03,6.722e-01
2.092e+03,6.654e-01
2.093e+03,6.554e-01
2.094e+03,6.477e-01
2.095e+03,6.383e-01
2.096e+03,6.296e-01
2.097e+03,6.205e-01
2.098e+03,6.113e-01
2.099e+03,6.022e-01
2.100e+03,5.014e-01
2.101e+03,-1.775e+00
2.102e+03,-3.317e+00
2.103e+03,-2.418e+00
2.104e+03,-2.478e+00
2.105e+03,-2.460e+00
2.106e+03,-2.142e+00
2.107e+03,-2.206e+00
2.108e+03,-1.966e+00
2.109e+03,-1.922e+00
2.110e+03,-1.787e+00
2.111e+03,-1.815e+00
2.112e+03,-1.696e+00
2.113e+03,-1.414e+00
2.114e+03,-1.393e+00
2.115e+03,-1.287e+00
2.116e+03,-1.309e+00
2.117e+03,-1.221e+00
2.118e+03,-9.421e-01
2.119e+03,-1.072e+00
2.120e+03,-9.539e-01
2.121e+03,-6.857e-01
2.122e+03,-7.039e-01
2.123e+03,-6.023e-01
2.124e+03,-5.254e-01
2.125e+03,-4.762e-01
2.126e+03,-3.914e-01
2.127e+03,-3.418e-01
2.128e+03,-2.727e-01
2.129e+03,-2.172e-01
2.130e+03,-1.600e-01
2.131e+03,-1.048e-01
2.132e+03,-5.367e-02
2.133e+03,-2.550e-03
2.134e+03,-8.756e-02
2.135e+03,-1.660e-02
2.136e+03,1.983e-01
2.137e+03,1.734e-01
2.138e+03,2.191e-01
2.139e+03,2.785e-01
2.140e+03,2.885e-01
2.141e+03,3.446e-01
2.142e+03,3.640e-01
2.143e+03,4.019e-01
2.144e+03,4.296e-01
2.145e+03,4.571e-01
2.146e+03,4.850e-01
2.147e+03,5.086e-01
2.148e+03,5.331e-01
2.149e+03,5.546e-01
2.150e+03,5.755e-01
2.151e+03,5.949e-01
2.152e+03,6.129e-01
2.153e+03,6.297e-01
2.154e+03,6.452e-01
2.155e+03,6.596e-01
2.156e+03,6.728e-01
2.157e+03,6.849e-01
2.158e+03,6.959e-01
2.159e+03,7.059e-01
2.160e+03,7.148e-01
2.161e+03,7.228e-01
2.162e+03,7.299e-01
2.163e+03,7.360e-01
2.164e+03,7.413e-01
2.165e+03,7.458e-01
2.166e+03,7.494e-01
2.167e+03,7.522e-01
2.168e+03,7.544e-01
2.169e+03,7.558e-01
2.170e+03,7.565e-01
2.171e+03,7.565e-01
2.172e+03,7.560e-01
2.173e+03,7.548e-01
2.174e+03,7.531e-01
2.175e+03,7.508e-01
2.176e+03,7.480e-01
2.177e+03,7.447e-01
2.178e+03,7.410e-01
2.179e+03,7.368e-01
2.180e+03,5.996e-01
2.181e+03,6.192e-01
2.182e+03,7.847e-01
2.183e+03,7.118e-01
2.184e+03,7.111e-01
2.185e+03,7.257e-01
2.186e+03,6.923e-01
2.187e+03,7.066e-01
2.188e+03,6.856e-01
2.189e+03,6.845e-01
2.190e+03,6.748e-01
2.191e+03,6.661e-01
2.192e+03,6.593e-01
2.193e+03,6.494e-01
2.194e+03,6.418e-01
2.195e+03,6.325e-01
2.196e+03,6.239e-01
2.197e+03,4.824e-01
2.198e+03,4.979e-01
2.199e+03,6.597e-01
2.200e+03,4.922e-01
2.201e+03,-1.766e+00
2.202e+03,-3.297e+00
2.203e+03,-2.404e+00
2.204e+03,-2.464e+00
2.205e+03,-2.446e+00
2.206e+03,-2.130e+00
2.207e+03,-2.194e+00
2.208e+03,-2.087e+00
2.209e+03,-2.019e+00
2.210e+03,-1.716e+00
2.211e+03,-1.810e+00
2.212e+03,-1.687e+00
2.213e+03,-1.386e+00
2.214e+03,-1.523e+00
2.215e+03,-1.372e+00
2.216e+03,-1.107e+00
2.217e+03,-1.104e+00
2.218e+03,-9.935e-01
2.219e+03,-9.043e-01
2.220e+03,-8.420e-01
2.221e+03,-7.468e-01
2.222e+03,-6.845e-01
2.223e+03,-6.047e-01
2.224e+03,-6.691e-01
2.225e+03,-7.081e-01
2.226e+03,-4.480e-01
2.227e+03,-2.831e-01
2.228e+03,-2.827e-01
2.229e+03,-3.301e-01
2.230e+03,-2.549e-01
2.231e+03,-3.677e-02
2.232e+03,-4.400e-02
2.233e+03,3.938e-03
2.234e+03,7.678e-02
2.235e+03,9.322e-02
2.236e+03,1.586e-01
2.237e+03,1.865e-01
2.238e+03,2.321e-01
2.239e+03,2.682e-01
2.240e+03,3.032e-01
2.241e+03,3.389e-01
2.242e+03,3.698e-01
2.243e+03,4.015e-01
2.244e+03,4.300e-01
2.245e+03,4.578e-01
2.246e+03,4.838e-01
2.247e+03,5.082e-01
2.248e+03,5.313e-01
2.249e+03,5.529e-01
2.250e+03,4.417e-01
2.251e+03,4.850e-01
2.252e+03,6.722e-01
2.253e+03,6.220e-01
2.254e+03,6.426e-01
2.255e+03,6.774e-01
2.256e+03,6.637e-01
2.257e+03,6.967e-01
2.258e+03,6.937e-01
2.259e+03,7.097e-01
2.260e+03,7.163e-01
2.261e+03,7.233e-01
2.262e+03,7.312e-01
2.263e+03,7.356e-01
2.264e+03,7.414e-01
2.265e+03,7.449e-01
2.266e+03,7.483e-01
2.267e+03,7.508e-01
2.268e+03,7.525e-01
2.269e+03,7.536e-01
2.270e+03,7.539e-01
2.271e+03,7.536e-01
2.272e+03,7.527e-01
2.273e+03,7.513e-01
2.274e+03,7.492e-01
2.275e+03,7.467e-01
2.276e+03,7.436e-01
2.277e+03,7.400e-01
2.278e+03,7.360e-01
2.279e+03,7.316e-01
2.280e+03,7.267e-01
2.281e+03,7.215e-01
2.282e+03,7.158e-01
2.283e+03,7.099e-01
2.284e+03,7.036e-01
2.285e+03,6.970e-01
2.286e+03,6.901e-01
2.287e+03,6.830e-01
2.288e+03,6.756e-01
2.289e+03,6.680e-01
2.290e+03,6.602e-01
2.291e+03,6.521e-01
2.292e+03,6.439e-01
2.293e+03,6.356e-01
2.294e+03,6.271e-01
2.295e+03,6.184e-01
2.296e+03,6.097e-01
2.297e+03,6.008e-01
2.298e+03,5.919e-01
2.299e+03,5.828e-01
2.300e+03,5.737e-01
2.301e+03,-1.773e+00
2.302e+03,-3.312e+00
2.303e+03,-2.415e+00
2.304e+03,-2.474e+00
2.305e+03,-2.456e+00
2.306e+03,-2.139e+00
2.307e+03,-2.203e+00
2.308e+03,-2.095e+00
2.309e+03,-2.027e+00
2.310e+03,-1.722e+00
2.311e+03,-1.685e+00
2.312e+03,-1.586e+00
2.313e+03,-1.453e+00
2.314e+03,-1.392e+00
2.315e+03,-1.270e+00
2.316e+03,-1.327e+00
2.317e+03,-1.206e+00
2.318e+03,-9.512e-01
2.319e+03,-1.068e+00
2.320e+03,-9.550e-01
2.321e+03,-6.869e-01
2.322e+03,-7.035e-01
2.323e+03,-6.041e-01
2.324e+03,-5.257e-01
2.325e+03,-6.098e-01
2.326e+03,-5.002e-01
2.327e+03,-2.803e-01
2.328e+03,-2.783e-01
2.329e+03,-2.174e-01
2.330e+03,-1.395e-01
2.331e+03,-1.110e-01
2.332e+03,-3.870e-02
2.333e+03,-1.409e-03
2.334e+03,5.238e-02
2.335e+03,9.659e-02
2.336e+03,1.398e-01
2.337e+03,1.831e-01
2.338e+03,2.218e-01
2.339e+03,2.609e-01
2.340e+03,2.968e-01
2.341e+03,3.316e-01
2.342e+03,3.645e-01
2.343e+03,3.956e-01
2.344e+03,4.253e-01
2.345e+03,4.533e-01
2.346e+03,4.798e-01
2.347e+03,5.047e-01
2.348e+03,5.282e-01
2.349e+03,5.503e-01
2.350e+03,5.710e-01
2.351e+03,5.904e-01
2.352e+03,6.084e-01
2.353e+03,6.252e-01
2.354e+03,6.407e-01
2.355e+03,5.229e-01
2.356e+03,5.606e-01
2.357e+03,7.432e-01
2.358e+03,6.873e-01
2.359e+03,5.704e-01
2.360e+03,6.249e-01
2.361e+03,7.768e-01
2.362e+03,7.381e-01
2.363e+03,7.359e-01
2.364e+03,7.686e-01
2.365e+03,7.443e-01
2.366e+03,7.685e-01
2.367e+03,7.588e-01
2.368e+03,7.658e-01
2.369e+03,7.659e-01
2.370e+03,6.329e-01
2.371e+03,6.587e-01
2.372e+03,8.270e-01
2.373e+03,7.594e-01
2.374e+03,7.623e-01
2.375e+03,7.808e-01
2.376e+03,7.510e-01
2.377e+03,7.686e-01
2.378e+03,7.508e-01
2.379e+03,7.526e-01
2.380e+03,7.456e-01
2.381e+03,7.396e-01
2.382e+03,7.351e-01
2.383e+03,7.274e-01
2.384e+03,7.219e-01
2.385e+03,7.144e-01
2.386e+03,7.075e-01
2.387e+03,7.001e-01
2.388e+03,6.923e-01
2.389e+03,6.845e-01
2.390e+03,5.441e-01
2.391e+03,5.603e-01
2.392e+03,7.224e-01
2.393e+03,6.468e-01
2.394e+03,6.434e-01
2.395e+03,6.554e-01
2.396e+03,6.197e-01
2.397e+03,6.318e-01
2.398e+03,6.088e-01
2.399e+03,6.059e-01
2.400e+03,5.035e-01
2.401e+03,-1.777e+00
2.402e+03,-3.320e+00
2.403e+03,-2.420e+00
2.404e+03,-2.480e+00
2.405e+03,-2.462e+00
2.406e+03,-2.144e+00
2.407e+03,-2.208e+00
2.408e+03,-1.968e+00
2.409e+03,-1.924e+00
2.410e+03,-1.789e+00
2.411e+03,-1.684e+00
2.412e+03,-1.590e+00
2.413e+03,-1.479e+00
2.414e+03,-1.390e+00
2.415e+03,-1.290e+00
2.416e+03,-1.200e+00
2.417e+03,-1.243e+00
2.418e+03,-1.131e+00
2.419e+03,-8.767e-01
2.420e+03,-8.619e-01
2.421e+03,-7.780e-01
2.422e+03,-6.805e-01
2.423e+03,-6.336e-01
2.424e+03,-5.409e-01
2.425e+03,-4.858e-01
2.426e+03,-4.130e-01
2.427e+03,-4.837e-01
2.428e+03,-3.981e-01
2.429e+03,-1.663e-01
2.430e+03,-3.105e-01
2.431e+03,-2.246e-01
2.432e+03,1.962e-02
2.433e+03,-2.351e-02
2.434e+03,5.173e-02
2.435e+03,1.054e-01
2.436e+03,-2.990e-03
2.437e+03,8.329e-02
2.438e+03,2.805e-01
2.439e+03,2.597e-01
2.440e+03,2.985e-01
2.441e+03,3.548e-01
2.442e+03,3.620e-01
2.443e+03,4.136e-01
2.444e+03,4.306e-01
2.445e+03,4.645e-01
2.446e+03,4.894e-01
2.447e+03,5.137e-01
2.448e+03,5.385e-01
2.449e+03,5.592e-01
2.450e+03,5.808e-01
2.451e+03,5.995e-01
2.452e+03,4.851e-01
2.453e+03,3.937e-01
2.454e+03,6.048e-01
2.455e+03,7.230e-01
2.456e+03,6.743e-01
2.457e+03,7.129e-01
2.458e+03,7.180e-01
2.459e+03,7.225e-01
2.460e+03,7.389e-01
2.461e+03,7.394e-01
2.462e+03,7.507e-01
2.463e+03,7.539e-01
2.464e+03,7.596e-01
2.465e+03,7.635e-01
2.466e+03,7.663e-01
2.467e+03,7.691e-01
2.468e+03,7.705e-01
2.469e+03,7.716e-01
2.470e+03,7.718e-01
2.471e+03,7.714e-01
2.472e+03,6.378e-01
2.473e+03,6.607e-01
2.474e+03,8.296e-01
2.475e+03,6.271e-01
2.476e+03,6.539e-01
2.477e+03,8.423e-01
2.478e+03,6.115e-01
2.479e+03,6.582e-01
2.480e+03,8.315e-01
2.481e+03,7.385e-01
2.482e+03,7.574e-01
2.483e+03,7.577e-01
2.484e+03,7.321e-01
2.485e+03,7.430e-01
2.486e+03,7.222e-01
2.487e+03,7.217e-01
2.488e+03,7.105e-01
2.489e+03,7.025e-01
2.490e+03,6.947e-01
2.491e+03,6.849e-01
2.492e+03,6.768e-01
2.493e+03,5.345e-01
2.494e+03,5.501e-01
2.495e+03,7.117e-01
2.496e+03,6.350e-01
2.497e+03,6.309e-01
2.498e+03,6.422e-01
2.499e+03,6.057e-01
2.500e+03,5.095e-01
2.501e+03,-1.788e+00
2.502e+03,-3.344e+00
2.503e+03,-2.437e+00
2.504e+03,-2.497e+00
2.505e+03,-2.479e+00
2.506e+03,-2.158e+00
2.507e+03,-2.223e+00
2.508e+03,-1.980e+00
2.509e+03,-1.936e+00
2.510e+03,-1.800e+00
2.511e+03,-1.695e+00
2.512e+03,-1.600e+00
2.513e+03,-1.487e+00
2.514e+03,-1.398e+00
2.515e+03,-1.297e+00
2.516e+03,-1.206e+00
2.517e+03,-1.116e+00
2.518e+03,-1.028e+00
2.519e+03,-9.438e-01
2.520e+03,-8.611e-01
2.521e+03,-7.820e-01
2.522e+03,-7.049e-01
2.523e+03,-6.306e-01
2.524e+03,-5.587e-01
2.525e+03,-4.893e-01
2.526e+03,-4.223e-01
2.527e+03,-3.577e-01
2.528e+03,-2.954e-01
2.529e+03,-2.354e-01
2.530e+03,-1.777e-01
2.531e+03,-1.222e-01
2.532e+03,-6.889e-02
2.533e+03,-1.769e-02
2.534e+03,3.142e-02
2.535e+03,7.848e-02
2.536e+03,1.235e-01
2.537e+03,1.666e-01
2.538e+03,2.078e-01
2.539e+03,2.471e-01
2.540e+03,2.846e-01
2.541e+03,3.203e-01
2.542e+03,3.542e-01
2.543e+03,2.528e-01
2.544e+03,3.081e-01
2.545e+03,5.096e-01
2.546e+03,4.692e-01
2.547e+03,5.005e-01
2.548e+03,5.461e-01
2.549e+03,5.420e-01
2.550e+03,5.851e-01
2.551e+03,5.913e-01
2.552e+03,6.165e-01
2.553e+03,6.319e-01
2.554e+03,6.474e-01
2.555e+03,6.637e-01
2.556e+03,6.760e-01
2.557e+03,6.895e-01
2.558e+03,7.004e-01
2.559e+03,7.110e-01
2.560e+03,7.204e-01
2.561e+03,7.287e-01
2.562e+03,7.362e-01
2.563e+03,7.426e-01
2.564e+03,6.145e-01
2.565e+03,6.440e-01
2.566e+03,8.204e-01
2.567e+03,7.558e-01
2.568e+03,7.636e-01
2.569e+03,7.865e-01
2.570e+03,7.605e-01
2.571e+03,7.822e-01
2.572e+03,7.680e-01
2.573e+03,7.735e-01
2.574e+03,7.698e-01
2.575e+03,7.669e-01
2.576e+03,7.655e-01
2.577e+03,7.607e-01
2.578e+03,7.579e-01
2.579e+03,7.531e-01
2.580e+03,7.486e-01
2.581e+03,7.434e-01
2.582e+03,7.379e-01
2.583e+03,7.321e-01
2.584e+03,7.258e-01
2.585e+03,7.193e-01
2.586e+03,7.125e-01
2.587e+03,7.054e-01
2.588e+03,5.643e-01
2.589e+03,5.815e-01
2.590e+03,7.461e-01
2.591e+03,6.704e-01
2.592e+03,6.676e-01
2.593e+03,6.804e-01
2.594e+03,5.111e-01
2.595e+03,4.150e-01
2.596e+03,5.895e-01
2.597e+03,6.917e-01
2.598e+03,6.183e-01
2.599e+03,6.351e-01
2.600e+03,5.127e-01
2.601e+03,-1.783e+00
2.602e+03,-3.330e+00
2.603e+03,-2.428e+00
2.604e+03,-2.488e+00
2.605e+03,-2.470e+00
2.606e+03,-2.151e+00
2.607e+03,-2.216e+00
2.608e+03,-1.974e+00
2.609e+03,-1.931e+00
2.610e+03,-1.795e+00
2.611e+03,-1.690e+00
2.612e+03,-1.596e+00
2.613e+03,-1.484e+00
2.614e+03,-1.395e+00
2.615e+03,-1.295e+00
2.616e+03,-1.205e+00
2.617e+03,-1.115e+00
2.618e+03,-1.027e+00
2.619e+03,-9.437e-01
2.620e+03,-8.615e-01
2.621e+03,-7.829e-01
2.622e+03,-8.391e-01
2.623e+03,-7.406e-01
2.624e+03,-4.976e-01
2.625e+03,-4.959e-01
2.626e+03,-4.239e-01
2.627e+03,-3.385e-01
2.628e+03,-3.034e-01
2.629e+03,-2.224e-01
2.630e+03,-1.788e-01
2.631e+03,-1.172e-01
2.632e+03,-6.632e-02
2.633e+03,-1.615e-02
2.634e+03,3.391e-02
2.635e+03,7.912e-02
2.636e+03,1.247e-01
2.637e+03,1.668e-01
2.638e+03,2.078e-01
2.639e+03,2.467e-01
2.640e+03,1.508e-01
2.641e+03,2.108e-01
2.642e+03,4.158e-01
2.643e+03,2.474e-01
2.644e+03,3.077e-01
2.645e+03,5.289e-01
2.646e+03,4.618e-01
2.647e+03,5.142e-01
2.648e+03,5.455e-01
2.649e+03,5.477e-01
2.650e+03,5.882e-01
2.651e+03,5.935e-01
2.652e+03,6.197e-01
2.653e+03,6.332e-01
2.654e+03,6.493e-01
2.655e+03,6.646e-01
2.656e+03,6.767e-01
2.657e+03,6.898e-01
2.658e+03,7.003e-01
2.659e+03,7.106e-01
2.660e+03,7.195e-01
2.661e+03,7.275e-01
2.662e+03,7.346e-01
2.663e+03,7.407e-01
2.664e+03,7.460e-01
2.665e+03,7.504e-01
2.666e+03,7.541e-01
2.667e+03,7.569e-01
2.668e+03,7.590e-01
2.669e+03,7.604e-01
2.670e+03,7.611e-01
2.671e+03,7.611e-01
2.672e+03,7.605e-01
2.673e+03,7.593e-01
2.674e+03,7.575e-01
2.675e+03,7.552e-01
2.676e+03,7.523e-01
2.677e+03,7.490e-01
2.678e+03,7.452e-01
2.679e+03,7.409e-01
2.680e+03,7.362e-01
2.681e+03,7.311e-01
2.682e+03,7.256e-01
2.683e+03,7.198e-01
2.684e+03,7.136e-01
2.685e+03,7.072e-01
2.686e+03,7.004e-01
2.687e+03,6.933e-01
2.688e+03,6.860e-01
2.689e+03,6.785e-01
2.690e+03,6.707e-01
2.691e+03,6.627e-01
2.692e+03,6.546e-01
2.693e+03,6.463e-01
2.694e+03,6.378e-01
2.695e+03,6.291e-01
2.696e+03,6.204e-01
2.697e+03,6.115e-01
2.698e+03,6.026e-01
2.699e+03,5.935e-01
2.700e+03,4.764e-01
2.701e+03,-1.784e+00
2.702e+03,-3.338e+00
2.703e+03,-2.432e+00
2.704e+03,-2.492e+00
2.705e+03,-2.474e+00
2.706e+03,-2.154e+00
2.707e+03,-2.218e+00
2.708e+03,-1.976e+00
2.709e+03,-2.066e+00
2.710e+03,-1.905e+00
2.711e+03,-1.628e+00
2.712e+03,-1.601e+00
2.713e+03,-1.483e+00
2.714e+03,-1.372e+00
2.715e+03,-1.298e+00
2.716e+03,-1.187e+00
2.717e+03,-1.110e+00
2.718e+03,-1.016e+00
2.719e+03,-9.341e-01
2.720e+03,-8.523e-01
2.721e+03,-7.721e-01
2.722e+03,-6.967e-01
2.723e+03,-6.217e-01
2.724e+03,-5.507e-01
2.725e+03,-4.814e-01
2.726e+03,-4.147e-01
2.727e+03,-3.504e-01
2.728e+03,-2.884e-01
2.729e+03,-2.288e-01
2.730e+03,-1.713e-01
2.731e+03,-1.161e-01
2.732e+03,-6.299e-02
2.733e+03,-1.205e-02
2.734e+03,3.681e-02
2.735e+03,8.363e-02
2.736e+03,1.285e-01
2.737e+03,1.713e-01
2.738e+03,2.123e-01
2.739e+03,2.514e-01
2.740e+03,2.886e-01
2.741e+03,3.241e-01
2.742e+03,3.579e-01
2.743e+03,3.899e-01
2.744e+03,4.203e-01
2.745e+03,4.491e-01
2.746e+03,4.763e-01
2.747e+03,5.020e-01
2.748e+03,5.262e-01
2.749e+03,5.489e-01
2.750e+03,5.703e-01
2.751e+03,5.903e-01
2.752e+03,6.089e-01
2.753e+03,6.263e-01
2.754e+03,6.424e-01
2.755e+03,6.574e-01
2.756e+03,6.711e-01
2.757e+03,6.837e-01
2.758e+03,6.952e-01
2.759e+03,7.057e-01
2.760e+03,7.151e-01
2.761e+03,7.236e-01
2.762e+03,7.311e-01
2.763e+03,7.377e-01
2.764e+03,6.099e-01
2.765e+03,6.394e-01
2.766e+03,8.156e-01
2.767e+03,6.177e-01
2.768e+03,6.504e-01
2.769e+03,8.455e-01
2.770e+03,7.520e-01
2.771e+03,7.793e-01
2.772e+03,7.863e-01
2.773e+03,7.649e-01
2.774e+03,7.828e-01
2.775e+03,7.661e-01
2.776e+03,7.713e-01
2.777e+03,7.645e-01
2.778e+03,6.275e-01
2.779e+03,6.487e-01
2.780e+03,6.814e-01
2.781e+03,6.343e-01
2.782e+03,8.057e-01
2.783e+03,7.536e-01
2.784e+03,7.257e-01
2.785e+03,7.617e-01
2.786e+03,7.141e-01
2.787e+03,7.347e-01
2.788e+03,7.113e-01
2.789e+03,5.758e-01
2.790e+03,5.917e-01
2.791e+03,7.534e-01
2.792e+03,6.795e-01
2.793e+03,6.741e-01
2.794e+03,6.875e-01
2.795e+03,6.508e-01
2.796e+03,6.632e-01
2.797e+03,6.399e-01
2.798e+03,6.368e-01
2.799e+03,4.917e-01
2.800e+03,3.725e-01
2.801e+03,-1.914e+00
2.802e+03,-3.436e+00
2.803e+03,-2.363e+00
2.804e+03,-2.490e+00
2.805e+03,-2.466e+00
2.806e+03,-2.126e+00
2.807e+03,-2.217e+00
2.808e+03,-1.955e+00
2.809e+03,-1.925e+00
2.810e+03,-1.783e+00
2.811e+03,-1.681e+00
2.812e+03,-1.587e+00
2.813e+03,-1.474e+00
2.814e+03,-1.387e+00
2.815e+03,-1.285e+00
2.816e+03,-1.196e+00
2.817e+03,-1.106e+00
2.818e+03,-1.019e+00
2.819e+03,-9.358e-01
2.820e+03,-8.537e-01
2.821e+03,-7.754e-01
2.822e+03,-6.988e-01
2.823e+03,-6.252e-01
2.824e+03,-5.539e-01
2.825e+03,-4.850e-01
2.826e+03,-4.186e-01
2.827e+03,-3.545e-01
2.828e+03,-2.928e-01
2.829e+03,-2.333e-01
2.830e+03,-1.761e-01
2.831e+03,-1.211e-01
2.832e+03,-6.824e-02
2.833e+03,-1.750e-02
2.834e+03,-1.017e-01
2.835e+03,-3.048e-02
2.836e+03,1.856e-01
2.837e+03,2.806e-02
2.838e+03,9.893e-02
2.839e+03,3.304e-01
2.840e+03,2.734e-01
2.841e+03,3.355e-01
2.842e+03,3.764e-01
2.843e+03,3.879e-01
2.844e+03,4.375e-01
2.845e+03,4.516e-01
2.846e+03,4.863e-01
2.847e+03,5.082e-01
2.848e+03,5.324e-01
2.849e+03,5.555e-01
2.850e+03,5.753e-01
2.851e+03,5.958e-01
2.852e+03,6.134e-01
2.853e+03,6.306e-01
2.854e+03,6.463e-01
2.855e+03,6.608e-01
2.856e+03,6.742e-01
2.857e+03,6.863e-01
2.858e+03,6.975e-01
2.859e+03,7.076e-01
2.860e+03,7.167e-01
2.861e+03,7.248e-01
2.862e+03,7.319e-01
2.863e+03,7.382e-01
2.864e+03,7.435e-01
2.865e+03,7.481e-01
2.866e+03,7.518e-01
2.867e+03,7.547e-01
2.868e+03,7.569e-01
2.869e+03,7.583e-01
2.870e+03,6.262e-01
2.871e+03,6.510e-01
2.872e+03,8.219e-01
2.873e+03,7.534e-01
2.874e+03,7.572e-01
2.875e+03,7.760e-01
2.876e+03,7.464e-01
2.877e+03,7.645e-01
2.878e+03,7.470e-01
2.879e+03,7.492e-01
2.880e+03,7.425e-01
2.881e+03,7.367e-01
2.882e+03,7.325e-01
2.883e+03,7.252e-01
2.884e+03,7.199e-01
2.885e+03,7.127e-01
2.886e+03,7.061e-01
2.887e+03,6.989e-01
2.888e+03,6.914e-01
2.889e+03,6.838e-01
2.890e+03,6.759e-01
2.891e+03,6.678e-01
2.892e+03,6.596e-01
2.893e+03,5.182e-01
2.894e+03,5.342e-01
2.895e+03,6.969e-01
2.896e+03,6.208e-01
2.897e+03,6.172e-01
2.898e+03,6.293e-01
2.899e+03,5.933e-01
2.900e+03,4.975e-01
2.901e+03,-1.911e+00
2.902e+03,-3.434e+00
2.903e+03,-2.360e+00
2.904e+03,-2.487e+00
2.905e+03,-2.464e+00
2.906e+03,-2.124e+00
2.907e+03,-2.215e+00
2.908e+03,-1.952e+00
2.909e+03,-1.922e+00
2.910e+03,-1.780e+00
2.911e+03,-1.677e+00
2.912e+03,-1.584e+00
2.913e+03,-1.471e+00
2.914e+03,-1.383e+00
2.915e+03,-1.282e+00
2.916e+03,-1.193e+00
2.917e+03,-1.102e+00
2.918e+03,-1.015e+00
2.919e+03,-9.316e-01
2.920e+03,-8.495e-01
2.921e+03,-7.710e-01
2.922e+03,-8.274e-01
2.923e+03,-7.291e-01
2.924e+03,-4.861e-01
2.925e+03,-4.845e-01
2.926e+03,-4.126e-01
2.927e+03,-3.273e-01
2.928e+03,-2.924e-01
2.929e+03,-2.115e-01
2.930e+03,-1.680e-01
2.931e+03,-1.065e-01
2.932e+03,-5.574e-02
2.933e+03,-5.686e-03
2.934e+03,4.426e-02
2.935e+03,8.936e-02
2.936e+03,1.804e-03
2.937e+03,6.845e-02
2.938e+03,2.810e-01
2.939e+03,2.523e-01
2.940e+03,2.947e-01
2.941e+03,3.511e-01
2.942e+03,2.246e-01
2.943e+03,3.025e-01
2.944e+03,4.904e-01
2.945e+03,4.579e-01
2.946e+03,4.882e-01
2.947e+03,5.341e-01
2.948e+03,5.324e-01
2.949e+03,5.748e-01
2.950e+03,5.829e-01
2.951e+03,6.083e-01
2.952e+03,6.247e-01
2.953e+03,6.409e-01
2.954e+03,6.578e-01
2.955e+03,6.709e-01
2.956e+03,6.850e-01
2.957e+03,6.966e-01
2.958e+03,7.078e-01
2.959e+03,7.177e-01
2.960e+03,7.266e-01
2.961e+03,6.016e-01
2.962e+03,6.332e-01
2.963e+03,8.110e-01
2.964e+03,6.157e-01
2.965e+03,5.172e-01
2.966e+03,7.381e-01
2.967e+03,8.183e-01
2.968e+03,7.798e-01
2.969e+03,7.938e-01
2.970e+03,7.952e-01
2.971e+03,7.876e-01
2.972e+03,7.938e-01
2.973e+03,7.863e-01
2.974e+03,7.872e-01
2.975e+03,7.828e-01
2.976e+03,7.797e-01
2.977e+03,6.429e-01
2.978e+03,6.627e-01
2.979e+03,8.298e-01
2.980e+03,6.238e-01
2.981e+03,6.484e-01
2.982e+03,8.350e-01
2.983e+03,7.344e-01
2.984e+03,7.545e-01
2.985e+03,7.548e-01
2.986e+03,7.270e-01
2.987e+03,6.056e-01
2.988e+03,6.079e-01
2.989e+03,7.791e-01
2.990e+03,6.997e-01
2.991e+03,6.967e-01
2.992e+03,7.097e-01
2.993e+03,6.725e-01
2.994e+03,5.524e-01
2.995e+03,5.532e-01
2.996e+03,7.220e-01
2.997e+03,5.096e-01
2.998e+03,3.961e-01
2.999e+03,6.050e-01
3.000e+03,5.627e-01
